 #
 # Subroutine ELSEPA. Elastic scattering of electrons and positrons
 #                    by neutral atoms and positive ions
 #
 # Projectile: electron
 # Kinetic energy = 6.80000E+01 eV = 2.49895E+00 a.u.
 #
 #  ***  WARNING: Energy is too low.
 #                The reliability of the results is questionable.
 #
 # Element:  C,  Z =   6,  atomic weight = 1.20107E+01 g/mol
 #
 # Nuclear model: point charge
 #
 # Number of electrons =  6
 #
 # Electron density: Read from file z_006.den   
 #                   Number of data points =  725
 #                   Volume integral = 6.00000E+00
 #
 # Furness-McCarthy exchange potential
 #
 # Total elastic cross section = 3.79488E-16 cm**2 = 1.35518E+01 a0**2
 # 1st transport cross section = 2.06867E-16 cm**2 = 7.38736E+00 a0**2
 # 2nd transport cross section = 1.98333E-16 cm**2 = 7.08258E+00 a0**2
 #
 #
 # Differential cross section:                       MU=(1-COS(THETA))/2
 #
 #  THETA        MU          DCS          DCS        Sherman      error
 #  (deg)                 (cm**2/sr)   (a0**2/sr)    function
 #----------------------------------------------------------------------
  0.000E+00  0.00000E+00  3.61646E-16  1.29146E+01  0.00000E+00  1.0E-07
  1.000E-04  7.61557E-13  3.61646E-16  1.29146E+01  2.38036E-10  1.0E-07
  1.250E-04  1.18994E-12  3.61646E-16  1.29146E+01  2.97545E-10  1.0E-07
  1.500E-04  1.71346E-12  3.61646E-16  1.29146E+01  3.57054E-10  1.0E-07
  1.750E-04  2.33225E-12  3.61646E-16  1.29146E+01  4.16563E-10  1.0E-07
  2.000E-04  3.04617E-12  3.61646E-16  1.29146E+01  4.76072E-10  1.0E-07
  2.250E-04  3.85530E-12  3.61646E-16  1.29146E+01  5.35581E-10  1.0E-07
  2.500E-04  4.75964E-12  3.61646E-16  1.29146E+01  5.95090E-10  1.0E-07
  2.750E-04  5.75917E-12  3.61646E-16  1.29146E+01  6.54599E-10  1.0E-07
  3.000E-04  6.85391E-12  3.61646E-16  1.29146E+01  7.14108E-10  1.0E-07
  3.250E-04  8.04379E-12  3.61646E-16  1.29146E+01  7.73617E-10  1.0E-07
  3.500E-04  9.32893E-12  3.61646E-16  1.29146E+01  8.33126E-10  1.0E-07
  3.750E-04  1.07092E-11  3.61646E-16  1.29146E+01  8.92635E-10  1.0E-07
  4.000E-04  1.21847E-11  3.61646E-16  1.29146E+01  9.52144E-10  1.0E-07
  4.250E-04  1.37554E-11  3.61646E-16  1.29146E+01  1.01165E-09  1.0E-07
  4.500E-04  1.54213E-11  3.61646E-16  1.29146E+01  1.07116E-09  1.0E-07
  4.750E-04  1.71823E-11  3.61646E-16  1.29146E+01  1.13067E-09  1.0E-07
  5.000E-04  1.90386E-11  3.61646E-16  1.29146E+01  1.19018E-09  1.0E-07
  5.250E-04  2.09900E-11  3.61646E-16  1.29146E+01  1.24969E-09  1.0E-07
  5.500E-04  2.30367E-11  3.61646E-16  1.29146E+01  1.30920E-09  1.0E-07
  5.750E-04  2.51785E-11  3.61646E-16  1.29146E+01  1.36871E-09  1.0E-07
  6.000E-04  2.74156E-11  3.61646E-16  1.29146E+01  1.42822E-09  1.0E-07
  6.250E-04  2.97478E-11  3.61646E-16  1.29146E+01  1.48773E-09  1.0E-07
  6.500E-04  3.21752E-11  3.61646E-16  1.29146E+01  1.54723E-09  1.0E-07
  6.750E-04  3.46979E-11  3.61646E-16  1.29146E+01  1.60674E-09  1.0E-07
  7.000E-04  3.73157E-11  3.61646E-16  1.29146E+01  1.66625E-09  1.0E-07
  7.250E-04  4.00286E-11  3.61646E-16  1.29146E+01  1.72576E-09  1.0E-07
  7.500E-04  4.28368E-11  3.61646E-16  1.29146E+01  1.78527E-09  1.0E-07
  7.750E-04  4.57402E-11  3.61646E-16  1.29146E+01  1.84478E-09  1.0E-07
  8.000E-04  4.87388E-11  3.61646E-16  1.29146E+01  1.90429E-09  1.0E-07
  8.250E-04  5.18325E-11  3.61646E-16  1.29146E+01  1.96380E-09  1.0E-07
  8.500E-04  5.50215E-11  3.61646E-16  1.29146E+01  2.02331E-09  1.0E-07
  8.750E-04  5.83057E-11  3.61646E-16  1.29146E+01  2.08282E-09  1.0E-07
  9.000E-04  6.16850E-11  3.61646E-16  1.29146E+01  2.14232E-09  1.0E-07
  9.250E-04  6.51595E-11  3.61646E-16  1.29146E+01  2.20183E-09  1.0E-07
  9.500E-04  6.87293E-11  3.61646E-16  1.29146E+01  2.26134E-09  1.0E-07
  9.750E-04  7.23943E-11  3.61646E-16  1.29146E+01  2.32085E-09  1.0E-07
  1.000E-03  7.61544E-11  3.61646E-16  1.29146E+01  2.38036E-09  1.0E-07
  1.250E-03  1.18991E-10  3.61646E-16  1.29146E+01  2.97545E-09  1.0E-07
  1.500E-03  1.71347E-10  3.61646E-16  1.29146E+01  3.57054E-09  1.0E-07
  1.750E-03  2.33223E-10  3.61646E-16  1.29146E+01  4.16563E-09  1.0E-07
  2.000E-03  3.04617E-10  3.61646E-16  1.29146E+01  4.76072E-09  1.0E-07
  2.250E-03  3.85531E-10  3.61646E-16  1.29146E+01  5.35581E-09  1.0E-07
  2.500E-03  4.75965E-10  3.61646E-16  1.29146E+01  5.95090E-09  1.0E-07
  2.750E-03  5.75917E-10  3.61646E-16  1.29146E+01  6.54599E-09  1.0E-07
  3.000E-03  6.85389E-10  3.61646E-16  1.29146E+01  7.14108E-09  1.0E-07
  3.250E-03  8.04380E-10  3.61646E-16  1.29146E+01  7.73617E-09  1.0E-07
  3.500E-03  9.32891E-10  3.61646E-16  1.29146E+01  8.33126E-09  1.0E-07
  3.750E-03  1.07092E-09  3.61646E-16  1.29146E+01  8.92635E-09  1.0E-07
  4.000E-03  1.21847E-09  3.61646E-16  1.29146E+01  9.52144E-09  1.0E-07
  4.250E-03  1.37554E-09  3.61646E-16  1.29146E+01  1.01165E-08  1.0E-07
  4.500E-03  1.54213E-09  3.61646E-16  1.29146E+01  1.07116E-08  1.0E-07
  4.750E-03  1.71823E-09  3.61646E-16  1.29146E+01  1.13067E-08  1.0E-07
  5.000E-03  1.90386E-09  3.61646E-16  1.29146E+01  1.19018E-08  1.0E-07
  5.250E-03  2.09900E-09  3.61646E-16  1.29146E+01  1.24969E-08  1.0E-07
  5.500E-03  2.30367E-09  3.61646E-16  1.29146E+01  1.30920E-08  1.0E-07
  5.750E-03  2.51785E-09  3.61646E-16  1.29146E+01  1.36871E-08  1.0E-07
  6.000E-03  2.74156E-09  3.61646E-16  1.29146E+01  1.42822E-08  1.0E-07
  6.250E-03  2.97478E-09  3.61646E-16  1.29146E+01  1.48773E-08  1.0E-07
  6.500E-03  3.21752E-09  3.61646E-16  1.29146E+01  1.54723E-08  1.0E-07
  6.750E-03  3.46978E-09  3.61646E-16  1.29146E+01  1.60674E-08  1.0E-07
  7.000E-03  3.73156E-09  3.61646E-16  1.29146E+01  1.66625E-08  1.0E-07
  7.250E-03  4.00286E-09  3.61646E-16  1.29146E+01  1.72576E-08  1.0E-07
  7.500E-03  4.28368E-09  3.61646E-16  1.29146E+01  1.78527E-08  1.0E-07
  7.750E-03  4.57402E-09  3.61646E-16  1.29146E+01  1.84478E-08  1.0E-07
  8.000E-03  4.87388E-09  3.61646E-16  1.29146E+01  1.90429E-08  1.0E-07
  8.250E-03  5.18326E-09  3.61646E-16  1.29146E+01  1.96380E-08  1.0E-07
  8.500E-03  5.50215E-09  3.61646E-16  1.29146E+01  2.02331E-08  1.0E-07
  8.750E-03  5.83057E-09  3.61646E-16  1.29146E+01  2.08282E-08  1.0E-07
  9.000E-03  6.16850E-09  3.61646E-16  1.29146E+01  2.14233E-08  1.0E-07
  9.250E-03  6.51596E-09  3.61646E-16  1.29146E+01  2.20183E-08  1.0E-07
  9.500E-03  6.87293E-09  3.61646E-16  1.29146E+01  2.26134E-08  1.0E-07
  9.750E-03  7.23942E-09  3.61646E-16  1.29146E+01  2.32085E-08  1.0E-07
  1.000E-02  7.61544E-09  3.61646E-16  1.29146E+01  2.38036E-08  1.0E-07
  1.250E-02  1.18991E-08  3.61646E-16  1.29146E+01  2.97545E-08  1.0E-07
  1.500E-02  1.71347E-08  3.61646E-16  1.29146E+01  3.57054E-08  1.0E-07
  1.750E-02  2.33223E-08  3.61646E-16  1.29146E+01  4.16563E-08  1.0E-07
  2.000E-02  3.04617E-08  3.61646E-16  1.29146E+01  4.76072E-08  1.0E-07
  2.250E-02  3.85531E-08  3.61646E-16  1.29146E+01  5.35582E-08  1.0E-07
  2.500E-02  4.75965E-08  3.61646E-16  1.29146E+01  5.95091E-08  1.0E-07
  2.750E-02  5.75917E-08  3.61646E-16  1.29146E+01  6.54600E-08  1.0E-07
  3.000E-02  6.85389E-08  3.61646E-16  1.29146E+01  7.14109E-08  1.0E-07
  3.250E-02  8.04380E-08  3.61646E-16  1.29146E+01  7.73618E-08  1.0E-07
  3.500E-02  9.32891E-08  3.61646E-16  1.29146E+01  8.33128E-08  1.0E-07
  3.750E-02  1.07092E-07  3.61645E-16  1.29146E+01  8.92637E-08  1.0E-07
  4.000E-02  1.21847E-07  3.61645E-16  1.29146E+01  9.52146E-08  1.0E-07
  4.250E-02  1.37554E-07  3.61645E-16  1.29146E+01  1.01166E-07  1.0E-07
  4.500E-02  1.54213E-07  3.61645E-16  1.29146E+01  1.07116E-07  1.0E-07
  4.750E-02  1.71823E-07  3.61645E-16  1.29146E+01  1.13067E-07  1.0E-07
  5.000E-02  1.90386E-07  3.61645E-16  1.29146E+01  1.19018E-07  1.0E-07
  5.250E-02  2.09900E-07  3.61645E-16  1.29146E+01  1.24969E-07  1.0E-07
  5.500E-02  2.30367E-07  3.61644E-16  1.29146E+01  1.30920E-07  1.0E-07
  5.750E-02  2.51785E-07  3.61644E-16  1.29146E+01  1.36871E-07  1.0E-07
  6.000E-02  2.74156E-07  3.61644E-16  1.29145E+01  1.42822E-07  1.0E-07
  6.250E-02  2.97478E-07  3.61644E-16  1.29145E+01  1.48773E-07  1.0E-07
  6.500E-02  3.21752E-07  3.61644E-16  1.29145E+01  1.54724E-07  1.0E-07
  6.750E-02  3.46978E-07  3.61644E-16  1.29145E+01  1.60675E-07  1.0E-07
  7.000E-02  3.73156E-07  3.61643E-16  1.29145E+01  1.66626E-07  1.0E-07
  7.250E-02  4.00286E-07  3.61643E-16  1.29145E+01  1.72577E-07  1.0E-07
  7.500E-02  4.28368E-07  3.61643E-16  1.29145E+01  1.78528E-07  1.0E-07
  7.750E-02  4.57402E-07  3.61643E-16  1.29145E+01  1.84479E-07  1.0E-07
  8.000E-02  4.87388E-07  3.61642E-16  1.29145E+01  1.90430E-07  1.0E-07
  8.250E-02  5.18325E-07  3.61642E-16  1.29145E+01  1.96381E-07  1.0E-07
  8.500E-02  5.50215E-07  3.61642E-16  1.29145E+01  2.02332E-07  1.0E-07
  8.750E-02  5.83057E-07  3.61642E-16  1.29145E+01  2.08283E-07  1.0E-07
  9.000E-02  6.16850E-07  3.61641E-16  1.29144E+01  2.14235E-07  1.0E-07
  9.250E-02  6.51596E-07  3.61641E-16  1.29144E+01  2.20186E-07  1.0E-07
  9.500E-02  6.87293E-07  3.61641E-16  1.29144E+01  2.26137E-07  1.0E-07
  9.750E-02  7.23942E-07  3.61641E-16  1.29144E+01  2.32088E-07  1.0E-07
  1.000E-01  7.61543E-07  3.61640E-16  1.29144E+01  2.38039E-07  1.0E-07
  1.250E-01  1.18991E-06  3.61637E-16  1.29143E+01  2.97551E-07  1.0E-07
  1.500E-01  1.71347E-06  3.61633E-16  1.29141E+01  3.57064E-07  1.0E-07
  1.750E-01  2.33223E-06  3.61628E-16  1.29140E+01  4.16578E-07  1.0E-07
  2.000E-01  3.04617E-06  3.61622E-16  1.29138E+01  4.76095E-07  1.0E-07
  2.250E-01  3.85531E-06  3.61616E-16  1.29135E+01  5.35614E-07  1.0E-07
  2.500E-01  4.75964E-06  3.61609E-16  1.29133E+01  5.95135E-07  1.0E-07
  2.750E-01  5.75916E-06  3.61601E-16  1.29130E+01  6.54659E-07  1.0E-07
  3.000E-01  6.85388E-06  3.61592E-16  1.29127E+01  7.14185E-07  1.0E-07
  3.250E-01  8.04378E-06  3.61583E-16  1.29124E+01  7.73715E-07  1.0E-07
  3.500E-01  9.32888E-06  3.61573E-16  1.29120E+01  8.33249E-07  1.0E-07
  3.750E-01  1.07092E-05  3.61562E-16  1.29116E+01  8.92786E-07  1.0E-07
  4.000E-01  1.21846E-05  3.61550E-16  1.29112E+01  9.52327E-07  1.0E-07
  4.250E-01  1.37553E-05  3.61538E-16  1.29108E+01  1.01187E-06  1.0E-07
  4.500E-01  1.54212E-05  3.61525E-16  1.29103E+01  1.07142E-06  1.0E-07
  4.750E-01  1.71822E-05  3.61511E-16  1.29098E+01  1.13098E-06  1.0E-07
  5.000E-01  1.90385E-05  3.61496E-16  1.29093E+01  1.19054E-06  1.0E-07
  5.250E-01  2.09899E-05  3.61481E-16  1.29087E+01  1.25010E-06  1.0E-07
  5.500E-01  2.30365E-05  3.61465E-16  1.29081E+01  1.30967E-06  1.0E-07
  5.750E-01  2.51783E-05  3.61448E-16  1.29075E+01  1.36925E-06  1.0E-07
  6.000E-01  2.74153E-05  3.61430E-16  1.29069E+01  1.42883E-06  1.0E-07
  6.250E-01  2.97475E-05  3.61412E-16  1.29063E+01  1.48842E-06  1.0E-07
  6.500E-01  3.21749E-05  3.61393E-16  1.29056E+01  1.54802E-06  1.0E-07
  6.750E-01  3.46974E-05  3.61373E-16  1.29049E+01  1.60762E-06  1.0E-07
  7.000E-01  3.73152E-05  3.61353E-16  1.29041E+01  1.66723E-06  1.0E-07
  7.250E-01  4.00281E-05  3.61331E-16  1.29034E+01  1.72685E-06  1.0E-07
  7.500E-01  4.28362E-05  3.61309E-16  1.29026E+01  1.78648E-06  1.0E-07
  7.750E-01  4.57395E-05  3.61286E-16  1.29018E+01  1.84611E-06  1.0E-07
  8.000E-01  4.87380E-05  3.61263E-16  1.29009E+01  1.90575E-06  1.0E-07
  8.250E-01  5.18317E-05  3.61238E-16  1.29001E+01  1.96540E-06  1.0E-07
  8.500E-01  5.50205E-05  3.61213E-16  1.28992E+01  2.02506E-06  1.0E-07
  8.750E-01  5.83045E-05  3.61187E-16  1.28982E+01  2.08473E-06  1.0E-07
  9.000E-01  6.16838E-05  3.61161E-16  1.28973E+01  2.14441E-06  1.0E-07
  9.250E-01  6.51582E-05  3.61134E-16  1.28963E+01  2.20409E-06  1.0E-07
  9.500E-01  6.87277E-05  3.61106E-16  1.28953E+01  2.26379E-06  1.0E-07
  9.750E-01  7.23925E-05  3.61077E-16  1.28943E+01  2.32350E-06  1.0E-07
  1.000E+00  7.61524E-05  3.61047E-16  1.28932E+01  2.38322E-06  1.0E-07
  1.100E+00  9.21439E-05  3.60922E-16  1.28887E+01  2.62220E-06  1.0E-07
  1.200E+00  1.09658E-04  3.60784E-16  1.28838E+01  2.86137E-06  1.0E-07
  1.300E+00  1.28695E-04  3.60635E-16  1.28785E+01  3.10074E-06  1.0E-07
  1.400E+00  1.49255E-04  3.60473E-16  1.28727E+01  3.34034E-06  1.0E-07
  1.500E+00  1.71338E-04  3.60300E-16  1.28665E+01  3.58018E-06  1.0E-07
  1.600E+00  1.94942E-04  3.60115E-16  1.28599E+01  3.82028E-06  1.0E-07
  1.700E+00  2.20070E-04  3.59918E-16  1.28529E+01  4.06065E-06  1.0E-07
  1.800E+00  2.46720E-04  3.59710E-16  1.28455E+01  4.30131E-06  1.0E-07
  1.900E+00  2.74892E-04  3.59489E-16  1.28376E+01  4.54229E-06  1.0E-07
  2.000E+00  3.04586E-04  3.59257E-16  1.28293E+01  4.78359E-06  1.0E-07
  2.100E+00  3.35803E-04  3.59014E-16  1.28206E+01  5.02523E-06  1.0E-07
  2.200E+00  3.68542E-04  3.58758E-16  1.28115E+01  5.26724E-06  1.0E-07
  2.300E+00  4.02802E-04  3.58491E-16  1.28020E+01  5.50962E-06  1.0E-07
  2.400E+00  4.38585E-04  3.58213E-16  1.27920E+01  5.75240E-06  1.0E-07
  2.500E+00  4.75889E-04  3.57922E-16  1.27816E+01  5.99560E-06  1.0E-07
  2.600E+00  5.14715E-04  3.57621E-16  1.27709E+01  6.23922E-06  1.0E-07
  2.700E+00  5.55063E-04  3.57307E-16  1.27597E+01  6.48329E-06  1.0E-07
  2.800E+00  5.96931E-04  3.56983E-16  1.27481E+01  6.72783E-06  1.0E-07
  2.900E+00  6.40321E-04  3.56647E-16  1.27361E+01  6.97286E-06  1.0E-07
  3.000E+00  6.85233E-04  3.56299E-16  1.27237E+01  7.21838E-06  1.0E-07
  3.100E+00  7.31665E-04  3.55940E-16  1.27109E+01  7.46443E-06  1.0E-07
  3.200E+00  7.79618E-04  3.55570E-16  1.26976E+01  7.71101E-06  1.0E-07
  3.300E+00  8.29092E-04  3.55189E-16  1.26840E+01  7.95814E-06  1.0E-07
  3.400E+00  8.80086E-04  3.54796E-16  1.26700E+01  8.20585E-06  1.0E-07
  3.500E+00  9.32601E-04  3.54393E-16  1.26556E+01  8.45415E-06  1.0E-07
  3.600E+00  9.86636E-04  3.53978E-16  1.26408E+01  8.70305E-06  1.0E-07
  3.700E+00  1.04219E-03  3.53552E-16  1.26256E+01  8.95258E-06  1.0E-07
  3.800E+00  1.09927E-03  3.53115E-16  1.26100E+01  9.20276E-06  1.0E-07
  3.900E+00  1.15786E-03  3.52667E-16  1.25940E+01  9.45359E-06  1.0E-07
  4.000E+00  1.21797E-03  3.52209E-16  1.25776E+01  9.70511E-06  1.0E-07
  4.100E+00  1.27961E-03  3.51739E-16  1.25608E+01  9.95732E-06  1.0E-07
  4.200E+00  1.34276E-03  3.51259E-16  1.25437E+01  1.02102E-05  1.0E-07
  4.300E+00  1.40743E-03  3.50768E-16  1.25262E+01  1.04639E-05  1.0E-07
  4.400E+00  1.47362E-03  3.50266E-16  1.25082E+01  1.07183E-05  1.0E-07
  4.500E+00  1.54133E-03  3.49754E-16  1.24899E+01  1.09735E-05  1.0E-07
  4.600E+00  1.61056E-03  3.49231E-16  1.24713E+01  1.12295E-05  1.0E-07
  4.700E+00  1.68131E-03  3.48698E-16  1.24522E+01  1.14863E-05  1.0E-07
  4.800E+00  1.75357E-03  3.48154E-16  1.24328E+01  1.17439E-05  1.0E-07
  4.900E+00  1.82735E-03  3.47600E-16  1.24130E+01  1.20023E-05  1.0E-07
  5.000E+00  1.90265E-03  3.47036E-16  1.23929E+01  1.22616E-05  1.0E-07
  5.100E+00  1.97947E-03  3.46462E-16  1.23724E+01  1.25218E-05  1.0E-07
  5.200E+00  2.05780E-03  3.45877E-16  1.23515E+01  1.27829E-05  1.0E-07
  5.300E+00  2.13765E-03  3.45282E-16  1.23303E+01  1.30449E-05  1.0E-07
  5.400E+00  2.21902E-03  3.44678E-16  1.23087E+01  1.33078E-05  1.0E-07
  5.500E+00  2.30190E-03  3.44063E-16  1.22867E+01  1.35717E-05  1.0E-07
  5.600E+00  2.38630E-03  3.43438E-16  1.22644E+01  1.38366E-05  1.0E-07
  5.700E+00  2.47222E-03  3.42804E-16  1.22418E+01  1.41025E-05  1.0E-07
  5.800E+00  2.55965E-03  3.42160E-16  1.22188E+01  1.43693E-05  1.0E-07
  5.900E+00  2.64859E-03  3.41506E-16  1.21954E+01  1.46372E-05  1.0E-07
  6.000E+00  2.73905E-03  3.40843E-16  1.21717E+01  1.49062E-05  1.0E-07
  6.100E+00  2.83103E-03  3.40170E-16  1.21477E+01  1.51762E-05  1.0E-07
  6.200E+00  2.92452E-03  3.39488E-16  1.21233E+01  1.54473E-05  1.0E-07
  6.300E+00  3.01952E-03  3.38797E-16  1.20987E+01  1.57196E-05  1.0E-07
  6.400E+00  3.11604E-03  3.38096E-16  1.20736E+01  1.59929E-05  1.0E-07
  6.500E+00  3.21407E-03  3.37386E-16  1.20483E+01  1.62674E-05  1.0E-07
  6.600E+00  3.31362E-03  3.36667E-16  1.20226E+01  1.65431E-05  1.0E-07
  6.700E+00  3.41468E-03  3.35939E-16  1.19966E+01  1.68199E-05  1.0E-07
  6.800E+00  3.51725E-03  3.35202E-16  1.19703E+01  1.70980E-05  1.0E-07
  6.900E+00  3.62133E-03  3.34457E-16  1.19437E+01  1.73772E-05  1.0E-07
  7.000E+00  3.72692E-03  3.33702E-16  1.19167E+01  1.76578E-05  1.0E-07
  7.100E+00  3.83403E-03  3.32939E-16  1.18895E+01  1.79395E-05  1.0E-07
  7.200E+00  3.94265E-03  3.32167E-16  1.18619E+01  1.82226E-05  1.0E-07
  7.300E+00  4.05278E-03  3.31387E-16  1.18341E+01  1.85070E-05  1.0E-07
  7.400E+00  4.16442E-03  3.30599E-16  1.18059E+01  1.87927E-05  1.0E-07
  7.500E+00  4.27757E-03  3.29802E-16  1.17774E+01  1.90797E-05  1.0E-07
  7.600E+00  4.39223E-03  3.28996E-16  1.17487E+01  1.93682E-05  1.0E-07
  7.700E+00  4.50840E-03  3.28183E-16  1.17196E+01  1.96580E-05  1.0E-07
  7.800E+00  4.62608E-03  3.27362E-16  1.16903E+01  1.99492E-05  1.0E-07
  7.900E+00  4.74527E-03  3.26532E-16  1.16607E+01  2.02418E-05  1.0E-07
  8.000E+00  4.86597E-03  3.25695E-16  1.16308E+01  2.05359E-05  1.0E-07
  8.100E+00  4.98817E-03  3.24850E-16  1.16006E+01  2.08314E-05  1.0E-07
  8.200E+00  5.11188E-03  3.23997E-16  1.15702E+01  2.11284E-05  1.0E-07
  8.300E+00  5.23711E-03  3.23137E-16  1.15394E+01  2.14270E-05  1.0E-07
  8.400E+00  5.36383E-03  3.22269E-16  1.15084E+01  2.17271E-05  1.0E-07
  8.500E+00  5.49207E-03  3.21394E-16  1.14772E+01  2.20287E-05  1.0E-07
  8.600E+00  5.62181E-03  3.20512E-16  1.14457E+01  2.23319E-05  1.0E-07
  8.700E+00  5.75306E-03  3.19622E-16  1.14139E+01  2.26367E-05  1.0E-07
  8.800E+00  5.88581E-03  3.18725E-16  1.13819E+01  2.29431E-05  1.0E-07
  8.900E+00  6.02007E-03  3.17821E-16  1.13496E+01  2.32512E-05  1.0E-07
  9.000E+00  6.15583E-03  3.16910E-16  1.13171E+01  2.35609E-05  1.0E-07
  9.100E+00  6.29310E-03  3.15992E-16  1.12843E+01  2.38723E-05  1.0E-07
  9.200E+00  6.43187E-03  3.15068E-16  1.12513E+01  2.41854E-05  1.0E-07
  9.300E+00  6.57214E-03  3.14137E-16  1.12180E+01  2.45002E-05  1.0E-07
  9.400E+00  6.71392E-03  3.13199E-16  1.11846E+01  2.48168E-05  1.0E-07
  9.500E+00  6.85720E-03  3.12255E-16  1.11508E+01  2.51351E-05  1.0E-07
  9.600E+00  7.00198E-03  3.11305E-16  1.11169E+01  2.54552E-05  1.0E-07
  9.700E+00  7.14827E-03  3.10348E-16  1.10827E+01  2.57772E-05  1.0E-07
  9.800E+00  7.29605E-03  3.09385E-16  1.10484E+01  2.61009E-05  1.0E-07
  9.900E+00  7.44534E-03  3.08416E-16  1.10138E+01  2.64266E-05  1.0E-07
  1.000E+01  7.59612E-03  3.07442E-16  1.09789E+01  2.67541E-05  1.0E-07
  1.025E+01  7.97965E-03  3.04979E-16  1.08910E+01  2.75812E-05  1.0E-07
  1.050E+01  8.37255E-03  3.02481E-16  1.08018E+01  2.84207E-05  1.0E-07
  1.075E+01  8.77480E-03  2.99950E-16  1.07114E+01  2.92727E-05  1.0E-07
  1.100E+01  9.18641E-03  2.97387E-16  1.06199E+01  3.01377E-05  1.0E-07
  1.125E+01  9.60736E-03  2.94793E-16  1.05273E+01  3.10161E-05  1.0E-07
  1.150E+01  1.00376E-02  2.92170E-16  1.04336E+01  3.19082E-05  1.0E-07
  1.175E+01  1.04773E-02  2.89520E-16  1.03390E+01  3.28144E-05  1.0E-07
  1.200E+01  1.09262E-02  2.86845E-16  1.02434E+01  3.37352E-05  1.0E-07
  1.225E+01  1.13844E-02  2.84144E-16  1.01470E+01  3.46708E-05  1.0E-07
  1.250E+01  1.18520E-02  2.81422E-16  1.00497E+01  3.56217E-05  1.0E-07
  1.275E+01  1.23288E-02  2.78678E-16  9.95176E+00  3.65883E-05  1.0E-07
  1.300E+01  1.28150E-02  2.75914E-16  9.85306E+00  3.75710E-05  1.0E-07
  1.325E+01  1.33104E-02  2.73132E-16  9.75371E+00  3.85702E-05  1.0E-07
  1.350E+01  1.38150E-02  2.70333E-16  9.65377E+00  3.95863E-05  1.0E-07
  1.375E+01  1.43290E-02  2.67519E-16  9.55328E+00  4.06198E-05  1.0E-07
  1.400E+01  1.48521E-02  2.64691E-16  9.45230E+00  4.16710E-05  1.0E-07
  1.425E+01  1.53845E-02  2.61851E-16  9.35087E+00  4.27405E-05  1.0E-07
  1.450E+01  1.59262E-02  2.59000E-16  9.24906E+00  4.38285E-05  1.0E-07
  1.475E+01  1.64770E-02  2.56139E-16  9.14690E+00  4.49357E-05  1.0E-07
  1.500E+01  1.70371E-02  2.53271E-16  9.04446E+00  4.60624E-05  1.0E-07
  1.525E+01  1.76063E-02  2.50395E-16  8.94177E+00  4.72091E-05  1.0E-07
  1.550E+01  1.81848E-02  2.47514E-16  8.83888E+00  4.83762E-05  1.0E-07
