 #  Scattering amplitudes (in cm)      MU=(1-cos(TH))/2
 #  Z =   1,   projectile: electron
 #  Kinetic energy = 1.50000E+02 eV
 #
 # TH (deg)      MU          Re(F)        Im(F)        Re(G)        Im(G)
 #--------------------------------------------------------------------------
  0.000E+00  0.00000E+00  5.68832E-09  1.04454E-09  0.00000E+00  0.00000E+00
  1.000E-04  7.61557E-13  5.68832E-09  1.04454E-09  1.54840E-18  2.46782E-19
  1.250E-04  1.18994E-12  5.68832E-09  1.04454E-09  1.93551E-18  3.08478E-19
  1.500E-04  1.71346E-12  5.68832E-09  1.04454E-09  2.32261E-18  3.70173E-19
  1.750E-04  2.33225E-12  5.68832E-09  1.04454E-09  2.70971E-18  4.31869E-19
  2.000E-04  3.04617E-12  5.68832E-09  1.04454E-09  3.09681E-18  4.93564E-19
  2.250E-04  3.85530E-12  5.68832E-09  1.04454E-09  3.48391E-18  5.55260E-19
  2.500E-04  4.75964E-12  5.68832E-09  1.04454E-09  3.87101E-18  6.16956E-19
  2.750E-04  5.75917E-12  5.68832E-09  1.04454E-09  4.25811E-18  6.78651E-19
  3.000E-04  6.85391E-12  5.68832E-09  1.04454E-09  4.64521E-18  7.40347E-19
  3.250E-04  8.04379E-12  5.68832E-09  1.04454E-09  5.03231E-18  8.02042E-19
  3.500E-04  9.32893E-12  5.68832E-09  1.04454E-09  5.41941E-18  8.63738E-19
  3.750E-04  1.07092E-11  5.68832E-09  1.04454E-09  5.80652E-18  9.25433E-19
  4.000E-04  1.21847E-11  5.68832E-09  1.04454E-09  6.19362E-18  9.87129E-19
  4.250E-04  1.37554E-11  5.68832E-09  1.04454E-09  6.58072E-18  1.04882E-18
  4.500E-04  1.54213E-11  5.68832E-09  1.04454E-09  6.96782E-18  1.11052E-18
  4.750E-04  1.71823E-11  5.68832E-09  1.04454E-09  7.35492E-18  1.17222E-18
  5.000E-04  1.90386E-11  5.68832E-09  1.04454E-09  7.74202E-18  1.23391E-18
  5.250E-04  2.09900E-11  5.68832E-09  1.04454E-09  8.12912E-18  1.29561E-18
  5.500E-04  2.30367E-11  5.68832E-09  1.04454E-09  8.51622E-18  1.35730E-18
  5.750E-04  2.51785E-11  5.68832E-09  1.04454E-09  8.90332E-18  1.41900E-18
  6.000E-04  2.74156E-11  5.68832E-09  1.04454E-09  9.29042E-18  1.48069E-18
  6.250E-04  2.97478E-11  5.68832E-09  1.04454E-09  9.67753E-18  1.54239E-18
  6.500E-04  3.21752E-11  5.68832E-09  1.04454E-09  1.00646E-17  1.60408E-18
  6.750E-04  3.46979E-11  5.68832E-09  1.04454E-09  1.04517E-17  1.66578E-18
  7.000E-04  3.73157E-11  5.68832E-09  1.04454E-09  1.08388E-17  1.72748E-18
  7.250E-04  4.00286E-11  5.68832E-09  1.04454E-09  1.12259E-17  1.78917E-18
  7.500E-04  4.28368E-11  5.68832E-09  1.04454E-09  1.16130E-17  1.85087E-18
  7.750E-04  4.57402E-11  5.68832E-09  1.04454E-09  1.20001E-17  1.91256E-18
  8.000E-04  4.87388E-11  5.68832E-09  1.04454E-09  1.23872E-17  1.97426E-18
  8.250E-04  5.18325E-11  5.68832E-09  1.04454E-09  1.27743E-17  2.03595E-18
  8.500E-04  5.50215E-11  5.68832E-09  1.04454E-09  1.31614E-17  2.09765E-18
  8.750E-04  5.83057E-11  5.68832E-09  1.04454E-09  1.35485E-17  2.15934E-18
  9.000E-04  6.16850E-11  5.68832E-09  1.04454E-09  1.39356E-17  2.22104E-18
  9.250E-04  6.51595E-11  5.68832E-09  1.04454E-09  1.43227E-17  2.28274E-18
  9.500E-04  6.87293E-11  5.68832E-09  1.04454E-09  1.47098E-17  2.34443E-18
  9.750E-04  7.23943E-11  5.68832E-09  1.04454E-09  1.50969E-17  2.40613E-18
  1.000E-03  7.61544E-11  5.68832E-09  1.04454E-09  1.54840E-17  2.46782E-18
  1.250E-03  1.18991E-10  5.68832E-09  1.04454E-09  1.93551E-17  3.08478E-18
  1.500E-03  1.71347E-10  5.68832E-09  1.04454E-09  2.32261E-17  3.70173E-18
  1.750E-03  2.33223E-10  5.68832E-09  1.04454E-09  2.70971E-17  4.31869E-18
  2.000E-03  3.04617E-10  5.68832E-09  1.04454E-09  3.09681E-17  4.93564E-18
  2.250E-03  3.85531E-10  5.68832E-09  1.04454E-09  3.48391E-17  5.55260E-18
  2.500E-03  4.75965E-10  5.68832E-09  1.04454E-09  3.87101E-17  6.16956E-18
  2.750E-03  5.75917E-10  5.68832E-09  1.04454E-09  4.25811E-17  6.78651E-18
  3.000E-03  6.85389E-10  5.68832E-09  1.04454E-09  4.64521E-17  7.40347E-18
  3.250E-03  8.04380E-10  5.68832E-09  1.04454E-09  5.03231E-17  8.02042E-18
  3.500E-03  9.32891E-10  5.68832E-09  1.04454E-09  5.41941E-17  8.63738E-18
  3.750E-03  1.07092E-09  5.68832E-09  1.04454E-09  5.80652E-17  9.25433E-18
  4.000E-03  1.21847E-09  5.68832E-09  1.04454E-09  6.19362E-17  9.87129E-18
  4.250E-03  1.37554E-09  5.68832E-09  1.04454E-09  6.58072E-17  1.04882E-17
  4.500E-03  1.54213E-09  5.68832E-09  1.04454E-09  6.96782E-17  1.11052E-17
  4.750E-03  1.71823E-09  5.68832E-09  1.04454E-09  7.35492E-17  1.17222E-17
  5.000E-03  1.90386E-09  5.68832E-09  1.04454E-09  7.74202E-17  1.23391E-17
  5.250E-03  2.09900E-09  5.68832E-09  1.04454E-09  8.12912E-17  1.29561E-17
  5.500E-03  2.30367E-09  5.68832E-09  1.04454E-09  8.51622E-17  1.35730E-17
  5.750E-03  2.51785E-09  5.68832E-09  1.04454E-09  8.90332E-17  1.41900E-17
  6.000E-03  2.74156E-09  5.68832E-09  1.04454E-09  9.29042E-17  1.48069E-17
  6.250E-03  2.97478E-09  5.68832E-09  1.04454E-09  9.67753E-17  1.54239E-17
  6.500E-03  3.21752E-09  5.68832E-09  1.04454E-09  1.00646E-16  1.60408E-17
  6.750E-03  3.46978E-09  5.68832E-09  1.04454E-09  1.04517E-16  1.66578E-17
  7.000E-03  3.73156E-09  5.68832E-09  1.04454E-09  1.08388E-16  1.72748E-17
  7.250E-03  4.00286E-09  5.68832E-09  1.04454E-09  1.12259E-16  1.78917E-17
  7.500E-03  4.28368E-09  5.68832E-09  1.04454E-09  1.16130E-16  1.85087E-17
  7.750E-03  4.57402E-09  5.68832E-09  1.04454E-09  1.20001E-16  1.91256E-17
  8.000E-03  4.87388E-09  5.68832E-09  1.04454E-09  1.23872E-16  1.97426E-17
  8.250E-03  5.18326E-09  5.68832E-09  1.04454E-09  1.27743E-16  2.03595E-17
  8.500E-03  5.50215E-09  5.68832E-09  1.04454E-09  1.31614E-16  2.09765E-17
  8.750E-03  5.83057E-09  5.68832E-09  1.04454E-09  1.35485E-16  2.15934E-17
  9.000E-03  6.16850E-09  5.68832E-09  1.04454E-09  1.39356E-16  2.22104E-17
  9.250E-03  6.51596E-09  5.68832E-09  1.04454E-09  1.43227E-16  2.28274E-17
  9.500E-03  6.87293E-09  5.68832E-09  1.04454E-09  1.47098E-16  2.34443E-17
  9.750E-03  7.23942E-09  5.68832E-09  1.04454E-09  1.50969E-16  2.40613E-17
  1.000E-02  7.61544E-09  5.68832E-09  1.04454E-09  1.54840E-16  2.46782E-17
  1.250E-02  1.18991E-08  5.68832E-09  1.04454E-09  1.93550E-16  3.08478E-17
  1.500E-02  1.71347E-08  5.68832E-09  1.04454E-09  2.32261E-16  3.70173E-17
  1.750E-02  2.33223E-08  5.68832E-09  1.04454E-09  2.70971E-16  4.31869E-17
  2.000E-02  3.04617E-08  5.68832E-09  1.04454E-09  3.09681E-16  4.93564E-17
  2.250E-02  3.85531E-08  5.68832E-09  1.04454E-09  3.48391E-16  5.55260E-17
  2.500E-02  4.75965E-08  5.68832E-09  1.04454E-09  3.87101E-16  6.16955E-17
  2.750E-02  5.75917E-08  5.68832E-09  1.04454E-09  4.25811E-16  6.78651E-17
  3.000E-02  6.85389E-08  5.68831E-09  1.04454E-09  4.64521E-16  7.40347E-17
  3.250E-02  8.04380E-08  5.68831E-09  1.04454E-09  5.03231E-16  8.02042E-17
  3.500E-02  9.32891E-08  5.68831E-09  1.04454E-09  5.41941E-16  8.63738E-17
  3.750E-02  1.07092E-07  5.68831E-09  1.04454E-09  5.80650E-16  9.25433E-17
  4.000E-02  1.21847E-07  5.68831E-09  1.04454E-09  6.19360E-16  9.87128E-17
  4.250E-02  1.37554E-07  5.68831E-09  1.04454E-09  6.58070E-16  1.04882E-16
  4.500E-02  1.54213E-07  5.68831E-09  1.04454E-09  6.96780E-16  1.11052E-16
  4.750E-02  1.71823E-07  5.68830E-09  1.04454E-09  7.35490E-16  1.17221E-16
  5.000E-02  1.90386E-07  5.68830E-09  1.04454E-09  7.74200E-16  1.23391E-16
  5.250E-02  2.09900E-07  5.68830E-09  1.04454E-09  8.12909E-16  1.29561E-16
  5.500E-02  2.30367E-07  5.68830E-09  1.04454E-09  8.51619E-16  1.35730E-16
  5.750E-02  2.51785E-07  5.68830E-09  1.04454E-09  8.90329E-16  1.41900E-16
  6.000E-02  2.74156E-07  5.68829E-09  1.04454E-09  9.29038E-16  1.48069E-16
  6.250E-02  2.97478E-07  5.68829E-09  1.04454E-09  9.67748E-16  1.54239E-16
  6.500E-02  3.21752E-07  5.68829E-09  1.04454E-09  1.00646E-15  1.60408E-16
  6.750E-02  3.46978E-07  5.68829E-09  1.04454E-09  1.04517E-15  1.66578E-16
  7.000E-02  3.73156E-07  5.68828E-09  1.04454E-09  1.08388E-15  1.72747E-16
  7.250E-02  4.00286E-07  5.68828E-09  1.04454E-09  1.12259E-15  1.78917E-16
  7.500E-02  4.28368E-07  5.68828E-09  1.04454E-09  1.16129E-15  1.85086E-16
  7.750E-02  4.57402E-07  5.68828E-09  1.04454E-09  1.20000E-15  1.91256E-16
  8.000E-02  4.87388E-07  5.68827E-09  1.04454E-09  1.23871E-15  1.97425E-16
  8.250E-02  5.18325E-07  5.68827E-09  1.04454E-09  1.27742E-15  2.03595E-16
  8.500E-02  5.50215E-07  5.68827E-09  1.04454E-09  1.31613E-15  2.09764E-16
  8.750E-02  5.83057E-07  5.68826E-09  1.04453E-09  1.35484E-15  2.15934E-16
  9.000E-02  6.16850E-07  5.68826E-09  1.04453E-09  1.39355E-15  2.22103E-16
  9.250E-02  6.51596E-07  5.68826E-09  1.04453E-09  1.43226E-15  2.28273E-16
  9.500E-02  6.87293E-07  5.68825E-09  1.04453E-09  1.47097E-15  2.34443E-16
  9.750E-02  7.23942E-07  5.68825E-09  1.04453E-09  1.50968E-15  2.40612E-16
  1.000E-01  7.61543E-07  5.68825E-09  1.04453E-09  1.54838E-15  2.46782E-16
  1.250E-01  1.18991E-06  5.68820E-09  1.04453E-09  1.93547E-15  3.08476E-16
  1.500E-01  1.71347E-06  5.68815E-09  1.04453E-09  2.32254E-15  3.70171E-16
  1.750E-01  2.33223E-06  5.68809E-09  1.04453E-09  2.70960E-15  4.31865E-16
  2.000E-01  3.04617E-06  5.68802E-09  1.04453E-09  3.09665E-15  4.93559E-16
  2.250E-01  3.85531E-06  5.68794E-09  1.04452E-09  3.48368E-15  5.55252E-16
  2.500E-01  4.75964E-06  5.68785E-09  1.04452E-09  3.87069E-15  6.16944E-16
  2.750E-01  5.75916E-06  5.68775E-09  1.04452E-09  4.25769E-15  6.78636E-16
  3.000E-01  6.85388E-06  5.68764E-09  1.04451E-09  4.64467E-15  7.40327E-16
  3.250E-01  8.04378E-06  5.68753E-09  1.04451E-09  5.03162E-15  8.02018E-16
  3.500E-01  9.32888E-06  5.68740E-09  1.04450E-09  5.41855E-15  8.63707E-16
  3.750E-01  1.07092E-05  5.68726E-09  1.04450E-09  5.80545E-15  9.25396E-16
  4.000E-01  1.21846E-05  5.68712E-09  1.04449E-09  6.19232E-15  9.87083E-16
  4.250E-01  1.37553E-05  5.68696E-09  1.04449E-09  6.57917E-15  1.04877E-15
  4.500E-01  1.54212E-05  5.68680E-09  1.04448E-09  6.96598E-15  1.11045E-15
  4.750E-01  1.71822E-05  5.68662E-09  1.04448E-09  7.35275E-15  1.17214E-15
  5.000E-01  1.90385E-05  5.68644E-09  1.04447E-09  7.73950E-15  1.23382E-15
  5.250E-01  2.09899E-05  5.68625E-09  1.04446E-09  8.12620E-15  1.29550E-15
  5.500E-01  2.30365E-05  5.68604E-09  1.04446E-09  8.51286E-15  1.35718E-15
  5.750E-01  2.51783E-05  5.68583E-09  1.04445E-09  8.89948E-15  1.41886E-15
  6.000E-01  2.74153E-05  5.68561E-09  1.04444E-09  9.28606E-15  1.48054E-15
  6.250E-01  2.97475E-05  5.68538E-09  1.04443E-09  9.67259E-15  1.54221E-15
  6.500E-01  3.21749E-05  5.68514E-09  1.04442E-09  1.00591E-14  1.60389E-15
  6.750E-01  3.46974E-05  5.68489E-09  1.04442E-09  1.04455E-14  1.66556E-15
  7.000E-01  3.73152E-05  5.68463E-09  1.04441E-09  1.08319E-14  1.72723E-15
  7.250E-01  4.00281E-05  5.68436E-09  1.04440E-09  1.12182E-14  1.78890E-15
  7.500E-01  4.28362E-05  5.68409E-09  1.04439E-09  1.16045E-14  1.85056E-15
  7.750E-01  4.57395E-05  5.68380E-09  1.04438E-09  1.19907E-14  1.91223E-15
  8.000E-01  4.87380E-05  5.68350E-09  1.04437E-09  1.23769E-14  1.97389E-15
  8.250E-01  5.18317E-05  5.68320E-09  1.04436E-09  1.27630E-14  2.03555E-15
  8.500E-01  5.50205E-05  5.68288E-09  1.04434E-09  1.31490E-14  2.09721E-15
  8.750E-01  5.83045E-05  5.68256E-09  1.04433E-09  1.35350E-14  2.15886E-15
  9.000E-01  6.16838E-05  5.68222E-09  1.04432E-09  1.39209E-14  2.22052E-15
  9.250E-01  6.51582E-05  5.68188E-09  1.04431E-09  1.43068E-14  2.28217E-15
  9.500E-01  6.87277E-05  5.68153E-09  1.04430E-09  1.46925E-14  2.34382E-15
  9.750E-01  7.23925E-05  5.68117E-09  1.04428E-09  1.50782E-14  2.40546E-15
  1.000E+00  7.61524E-05  5.68080E-09  1.04427E-09  1.54639E-14  2.46710E-15
  1.100E+00  9.21439E-05  5.67922E-09  1.04421E-09  1.70056E-14  2.71365E-15
  1.200E+00  1.09658E-04  5.67749E-09  1.04415E-09  1.85460E-14  2.96015E-15
  1.300E+00  1.28695E-04  5.67561E-09  1.04409E-09  2.00849E-14  3.20659E-15
  1.400E+00  1.49255E-04  5.67359E-09  1.04401E-09  2.16223E-14  3.45298E-15
  1.500E+00  1.71338E-04  5.67141E-09  1.04394E-09  2.31580E-14  3.69931E-15
  1.600E+00  1.94942E-04  5.66909E-09  1.04385E-09  2.46919E-14  3.94558E-15
  1.700E+00  2.20070E-04  5.66662E-09  1.04377E-09  2.62239E-14  4.19177E-15
  1.800E+00  2.46720E-04  5.66400E-09  1.04367E-09  2.77539E-14  4.43789E-15
  1.900E+00  2.74892E-04  5.66123E-09  1.04357E-09  2.92817E-14  4.68394E-15
  2.000E+00  3.04586E-04  5.65832E-09  1.04347E-09  3.08072E-14  4.92990E-15
  2.100E+00  3.35803E-04  5.65526E-09  1.04336E-09  3.23303E-14  5.17578E-15
  2.200E+00  3.68542E-04  5.65206E-09  1.04325E-09  3.38509E-14  5.42157E-15
  2.300E+00  4.02802E-04  5.64871E-09  1.04313E-09  3.53689E-14  5.66726E-15
  2.400E+00  4.38585E-04  5.64521E-09  1.04300E-09  3.68842E-14  5.91286E-15
  2.500E+00  4.75889E-04  5.64157E-09  1.04287E-09  3.83966E-14  6.15835E-15
  2.600E+00  5.14715E-04  5.63778E-09  1.04274E-09  3.99061E-14  6.40374E-15
  2.700E+00  5.55063E-04  5.63385E-09  1.04260E-09  4.14125E-14  6.64901E-15
  2.800E+00  5.96931E-04  5.62978E-09  1.04245E-09  4.29157E-14  6.89417E-15
  2.900E+00  6.40321E-04  5.62557E-09  1.04230E-09  4.44157E-14  7.13921E-15
  3.000E+00  6.85233E-04  5.62121E-09  1.04214E-09  4.59122E-14  7.38412E-15
  3.100E+00  7.31665E-04  5.61671E-09  1.04198E-09  4.74052E-14  7.62890E-15
  3.200E+00  7.79618E-04  5.61207E-09  1.04181E-09  4.88946E-14  7.87356E-15
  3.300E+00  8.29092E-04  5.60729E-09  1.04164E-09  5.03802E-14  8.11807E-15
  3.400E+00  8.80086E-04  5.60237E-09  1.04146E-09  5.18620E-14  8.36245E-15
  3.500E+00  9.32601E-04  5.59731E-09  1.04128E-09  5.33399E-14  8.60668E-15
  3.600E+00  9.86636E-04  5.59211E-09  1.04109E-09  5.48137E-14  8.85076E-15
  3.700E+00  1.04219E-03  5.58678E-09  1.04090E-09  5.62834E-14  9.09469E-15
  3.800E+00  1.09927E-03  5.58131E-09  1.04070E-09  5.77488E-14  9.33846E-15
  3.900E+00  1.15786E-03  5.57570E-09  1.04050E-09  5.92099E-14  9.58207E-15
  4.000E+00  1.21797E-03  5.56996E-09  1.04029E-09  6.06664E-14  9.82551E-15
  4.100E+00  1.27961E-03  5.56408E-09  1.04007E-09  6.21185E-14  1.00688E-14
  4.200E+00  1.34276E-03  5.55807E-09  1.03985E-09  6.35658E-14  1.03119E-14
  4.300E+00  1.40743E-03  5.55192E-09  1.03963E-09  6.50084E-14  1.05548E-14
  4.400E+00  1.47362E-03  5.54564E-09  1.03940E-09  6.64462E-14  1.07975E-14
  4.500E+00  1.54133E-03  5.53924E-09  1.03916E-09  6.78790E-14  1.10401E-14
  4.600E+00  1.61056E-03  5.53270E-09  1.03892E-09  6.93067E-14  1.12825E-14
  4.700E+00  1.68131E-03  5.52603E-09  1.03868E-09  7.07293E-14  1.15246E-14
  4.800E+00  1.75357E-03  5.51923E-09  1.03843E-09  7.21467E-14  1.17666E-14
  4.900E+00  1.82735E-03  5.51230E-09  1.03817E-09  7.35587E-14  1.20084E-14
  5.000E+00  1.90265E-03  5.50525E-09  1.03791E-09  7.49654E-14  1.22499E-14
  5.100E+00  1.97947E-03  5.49807E-09  1.03765E-09  7.63665E-14  1.24913E-14
  5.200E+00  2.05780E-03  5.49076E-09  1.03737E-09  7.77620E-14  1.27324E-14
  5.300E+00  2.13765E-03  5.48333E-09  1.03710E-09  7.91518E-14  1.29733E-14
  5.400E+00  2.21902E-03  5.47578E-09  1.03682E-09  8.05358E-14  1.32140E-14
  5.500E+00  2.30190E-03  5.46811E-09  1.03653E-09  8.19140E-14  1.34545E-14
  5.600E+00  2.38630E-03  5.46031E-09  1.03624E-09  8.32862E-14  1.36947E-14
  5.700E+00  2.47222E-03  5.45239E-09  1.03594E-09  8.46525E-14  1.39347E-14
  5.800E+00  2.55965E-03  5.44435E-09  1.03564E-09  8.60126E-14  1.41745E-14
  5.900E+00  2.64859E-03  5.43620E-09  1.03534E-09  8.73665E-14  1.44140E-14
  6.000E+00  2.73905E-03  5.42793E-09  1.03502E-09  8.87141E-14  1.46533E-14
  6.100E+00  2.83103E-03  5.41954E-09  1.03471E-09  9.00554E-14  1.48923E-14
  6.200E+00  2.92452E-03  5.41103E-09  1.03439E-09  9.13903E-14  1.51310E-14
  6.300E+00  3.01952E-03  5.40241E-09  1.03406E-09  9.27187E-14  1.53696E-14
  6.400E+00  3.11604E-03  5.39368E-09  1.03373E-09  9.40405E-14  1.56078E-14
  6.500E+00  3.21407E-03  5.38483E-09  1.03339E-09  9.53557E-14  1.58458E-14
  6.600E+00  3.31362E-03  5.37587E-09  1.03305E-09  9.66641E-14  1.60835E-14
  6.700E+00  3.41468E-03  5.36681E-09  1.03270E-09  9.79658E-14  1.63209E-14
  6.800E+00  3.51725E-03  5.35763E-09  1.03235E-09  9.92606E-14  1.65581E-14
  6.900E+00  3.62133E-03  5.34835E-09  1.03200E-09  1.00549E-13  1.67950E-14
  7.000E+00  3.72692E-03  5.33896E-09  1.03163E-09  1.01829E-13  1.70316E-14
  7.100E+00  3.83403E-03  5.32946E-09  1.03127E-09  1.03103E-13  1.72679E-14
  7.200E+00  3.94265E-03  5.31986E-09  1.03090E-09  1.04370E-13  1.75039E-14
  7.300E+00  4.05278E-03  5.31015E-09  1.03052E-09  1.05630E-13  1.77396E-14
  7.400E+00  4.16442E-03  5.30035E-09  1.03014E-09  1.06882E-13  1.79750E-14
  7.500E+00  4.27757E-03  5.29044E-09  1.02975E-09  1.08127E-13  1.82101E-14
  7.600E+00  4.39223E-03  5.28043E-09  1.02936E-09  1.09365E-13  1.84449E-14
  7.700E+00  4.50840E-03  5.27032E-09  1.02897E-09  1.10595E-13  1.86794E-14
  7.800E+00  4.62608E-03  5.26012E-09  1.02857E-09  1.11818E-13  1.89136E-14
  7.900E+00  4.74527E-03  5.24982E-09  1.02816E-09  1.13033E-13  1.91475E-14
  8.000E+00  4.86597E-03  5.23942E-09  1.02775E-09  1.14241E-13  1.93810E-14
  8.100E+00  4.98817E-03  5.22893E-09  1.02734E-09  1.15441E-13  1.96142E-14
  8.200E+00  5.11188E-03  5.21835E-09  1.02692E-09  1.16633E-13  1.98471E-14
  8.300E+00  5.23711E-03  5.20767E-09  1.02649E-09  1.17818E-13  2.00796E-14
  8.400E+00  5.36383E-03  5.19690E-09  1.02606E-09  1.18995E-13  2.03119E-14
  8.500E+00  5.49207E-03  5.18605E-09  1.02563E-09  1.20164E-13  2.05437E-14
  8.600E+00  5.62181E-03  5.17510E-09  1.02519E-09  1.21325E-13  2.07753E-14
  8.700E+00  5.75306E-03  5.16407E-09  1.02475E-09  1.22478E-13  2.10064E-14
  8.800E+00  5.88581E-03  5.15296E-09  1.02430E-09  1.23624E-13  2.12373E-14
  8.900E+00  6.02007E-03  5.14176E-09  1.02385E-09  1.24761E-13  2.14677E-14
  9.000E+00  6.15583E-03  5.13047E-09  1.02339E-09  1.25891E-13  2.16979E-14
  9.100E+00  6.29310E-03  5.11911E-09  1.02293E-09  1.27012E-13  2.19276E-14
  9.200E+00  6.43187E-03  5.10766E-09  1.02246E-09  1.28125E-13  2.21570E-14
  9.300E+00  6.57214E-03  5.09613E-09  1.02199E-09  1.29230E-13  2.23860E-14
  9.400E+00  6.71392E-03  5.08453E-09  1.02151E-09  1.30327E-13  2.26147E-14
  9.500E+00  6.85720E-03  5.07284E-09  1.02103E-09  1.31416E-13  2.28430E-14
  9.600E+00  7.00198E-03  5.06108E-09  1.02055E-09  1.32496E-13  2.30709E-14
  9.700E+00  7.14827E-03  5.04925E-09  1.02006E-09  1.33569E-13  2.32984E-14
  9.800E+00  7.29605E-03  5.03734E-09  1.01956E-09  1.34632E-13  2.35255E-14
  9.900E+00  7.44534E-03  5.02537E-09  1.01906E-09  1.35688E-13  2.37523E-14
  1.000E+01  7.59612E-03  5.01331E-09  1.01856E-09  1.36735E-13  2.39786E-14
  1.025E+01  7.97965E-03  4.98289E-09  1.01728E-09  1.39317E-13  2.45428E-14
  1.050E+01  8.37255E-03  4.95204E-09  1.01598E-09  1.41846E-13  2.51044E-14
  1.075E+01  8.77480E-03  4.92080E-09  1.01464E-09  1.44322E-13  2.56635E-14
  1.100E+01  9.18641E-03  4.88917E-09  1.01328E-09  1.46745E-13  2.62200E-14
  1.125E+01  9.60736E-03  4.85719E-09  1.01189E-09  1.49115E-13  2.67738E-14
  1.150E+01  1.00376E-02  4.82486E-09  1.01048E-09  1.51431E-13  2.73249E-14
  1.175E+01  1.04773E-02  4.79221E-09  1.00903E-09  1.53694E-13  2.78732E-14
  1.200E+01  1.09262E-02  4.75926E-09  1.00756E-09  1.55903E-13  2.84187E-14
  1.225E+01  1.13844E-02  4.72602E-09  1.00607E-09  1.58058E-13  2.89614E-14
  1.250E+01  1.18520E-02  4.69251E-09  1.00455E-09  1.60160E-13  2.95012E-14
  1.275E+01  1.23288E-02  4.65876E-09  1.00300E-09  1.62208E-13  3.00380E-14
  1.300E+01  1.28150E-02  4.62477E-09  1.00143E-09  1.64203E-13  3.05719E-14
  1.325E+01  1.33104E-02  4.59057E-09  9.99831E-10  1.66144E-13  3.11027E-14
  1.350E+01  1.38150E-02  4.55616E-09  9.98209E-10  1.68033E-13  3.16305E-14
  1.375E+01  1.43290E-02  4.52158E-09  9.96563E-10  1.69868E-13  3.21552E-14
  1.400E+01  1.48521E-02  4.48684E-09  9.94892E-10  1.71651E-13  3.26768E-14
  1.425E+01  1.53845E-02  4.45195E-09  9.93197E-10  1.73382E-13  3.31951E-14
  1.450E+01  1.59262E-02  4.41693E-09  9.91478E-10  1.75060E-13  3.37103E-14
  1.475E+01  1.64770E-02  4.38179E-09  9.89737E-10  1.76687E-13  3.42222E-14
  1.500E+01  1.70371E-02  4.34655E-09  9.87972E-10  1.78263E-13  3.47308E-14
