 #  Scattering amplitudes (in cm)      MU=(1-cos(TH))/2
 #  Z =   6,   projectile: electron
 #  Kinetic energy = 2.76000E+02 eV
 #
 # TH (deg)      MU          Re(F)        Im(F)        Re(G)        Im(G)
 #--------------------------------------------------------------------------
  0.000E+00  0.00000E+00  1.87762E-08  1.01013E-08  0.00000E+00  0.00000E+00
  1.000E-04  7.61557E-13  1.87762E-08  1.01013E-08  8.42217E-18  6.98785E-18
  1.250E-04  1.18994E-12  1.87762E-08  1.01013E-08  1.05277E-17  8.73481E-18
  1.500E-04  1.71346E-12  1.87762E-08  1.01013E-08  1.26332E-17  1.04818E-17
  1.750E-04  2.33225E-12  1.87762E-08  1.01013E-08  1.47388E-17  1.22287E-17
  2.000E-04  3.04617E-12  1.87762E-08  1.01013E-08  1.68443E-17  1.39757E-17
  2.250E-04  3.85530E-12  1.87762E-08  1.01013E-08  1.89499E-17  1.57227E-17
  2.500E-04  4.75964E-12  1.87762E-08  1.01013E-08  2.10554E-17  1.74696E-17
  2.750E-04  5.75917E-12  1.87762E-08  1.01013E-08  2.31610E-17  1.92166E-17
  3.000E-04  6.85391E-12  1.87762E-08  1.01013E-08  2.52665E-17  2.09635E-17
  3.250E-04  8.04379E-12  1.87762E-08  1.01013E-08  2.73720E-17  2.27105E-17
  3.500E-04  9.32893E-12  1.87762E-08  1.01013E-08  2.94776E-17  2.44575E-17
  3.750E-04  1.07092E-11  1.87762E-08  1.01013E-08  3.15831E-17  2.62044E-17
  4.000E-04  1.21847E-11  1.87762E-08  1.01013E-08  3.36887E-17  2.79514E-17
  4.250E-04  1.37554E-11  1.87762E-08  1.01013E-08  3.57942E-17  2.96984E-17
  4.500E-04  1.54213E-11  1.87762E-08  1.01013E-08  3.78997E-17  3.14453E-17
  4.750E-04  1.71823E-11  1.87762E-08  1.01013E-08  4.00053E-17  3.31923E-17
  5.000E-04  1.90386E-11  1.87762E-08  1.01013E-08  4.21108E-17  3.49392E-17
  5.250E-04  2.09900E-11  1.87762E-08  1.01013E-08  4.42164E-17  3.66862E-17
  5.500E-04  2.30367E-11  1.87762E-08  1.01013E-08  4.63219E-17  3.84332E-17
  5.750E-04  2.51785E-11  1.87762E-08  1.01013E-08  4.84275E-17  4.01801E-17
  6.000E-04  2.74156E-11  1.87762E-08  1.01013E-08  5.05330E-17  4.19271E-17
  6.250E-04  2.97478E-11  1.87762E-08  1.01013E-08  5.26385E-17  4.36741E-17
  6.500E-04  3.21752E-11  1.87762E-08  1.01013E-08  5.47441E-17  4.54210E-17
  6.750E-04  3.46979E-11  1.87762E-08  1.01013E-08  5.68496E-17  4.71680E-17
  7.000E-04  3.73157E-11  1.87762E-08  1.01013E-08  5.89552E-17  4.89149E-17
  7.250E-04  4.00286E-11  1.87762E-08  1.01013E-08  6.10607E-17  5.06619E-17
  7.500E-04  4.28368E-11  1.87762E-08  1.01013E-08  6.31662E-17  5.24089E-17
  7.750E-04  4.57402E-11  1.87762E-08  1.01013E-08  6.52718E-17  5.41558E-17
  8.000E-04  4.87388E-11  1.87762E-08  1.01013E-08  6.73773E-17  5.59028E-17
  8.250E-04  5.18325E-11  1.87762E-08  1.01013E-08  6.94829E-17  5.76498E-17
  8.500E-04  5.50215E-11  1.87762E-08  1.01013E-08  7.15884E-17  5.93967E-17
  8.750E-04  5.83057E-11  1.87762E-08  1.01013E-08  7.36940E-17  6.11437E-17
  9.000E-04  6.16850E-11  1.87762E-08  1.01013E-08  7.57995E-17  6.28906E-17
  9.250E-04  6.51595E-11  1.87762E-08  1.01013E-08  7.79050E-17  6.46376E-17
  9.500E-04  6.87293E-11  1.87762E-08  1.01013E-08  8.00106E-17  6.63846E-17
  9.750E-04  7.23943E-11  1.87762E-08  1.01013E-08  8.21161E-17  6.81315E-17
  1.000E-03  7.61544E-11  1.87762E-08  1.01013E-08  8.42217E-17  6.98785E-17
  1.250E-03  1.18991E-10  1.87762E-08  1.01013E-08  1.05277E-16  8.73481E-17
  1.500E-03  1.71347E-10  1.87762E-08  1.01013E-08  1.26332E-16  1.04818E-16
  1.750E-03  2.33223E-10  1.87762E-08  1.01013E-08  1.47388E-16  1.22287E-16
  2.000E-03  3.04617E-10  1.87762E-08  1.01013E-08  1.68443E-16  1.39757E-16
  2.250E-03  3.85531E-10  1.87762E-08  1.01013E-08  1.89499E-16  1.57227E-16
  2.500E-03  4.75965E-10  1.87762E-08  1.01013E-08  2.10554E-16  1.74696E-16
  2.750E-03  5.75917E-10  1.87762E-08  1.01013E-08  2.31610E-16  1.92166E-16
  3.000E-03  6.85389E-10  1.87762E-08  1.01013E-08  2.52665E-16  2.09635E-16
  3.250E-03  8.04380E-10  1.87762E-08  1.01013E-08  2.73720E-16  2.27105E-16
  3.500E-03  9.32891E-10  1.87762E-08  1.01013E-08  2.94776E-16  2.44575E-16
  3.750E-03  1.07092E-09  1.87762E-08  1.01013E-08  3.15831E-16  2.62044E-16
  4.000E-03  1.21847E-09  1.87762E-08  1.01013E-08  3.36887E-16  2.79514E-16
  4.250E-03  1.37554E-09  1.87762E-08  1.01013E-08  3.57942E-16  2.96984E-16
  4.500E-03  1.54213E-09  1.87762E-08  1.01013E-08  3.78997E-16  3.14453E-16
  4.750E-03  1.71823E-09  1.87762E-08  1.01013E-08  4.00053E-16  3.31923E-16
  5.000E-03  1.90386E-09  1.87762E-08  1.01013E-08  4.21108E-16  3.49392E-16
  5.250E-03  2.09900E-09  1.87762E-08  1.01013E-08  4.42164E-16  3.66862E-16
  5.500E-03  2.30367E-09  1.87762E-08  1.01013E-08  4.63219E-16  3.84332E-16
  5.750E-03  2.51785E-09  1.87762E-08  1.01013E-08  4.84275E-16  4.01801E-16
  6.000E-03  2.74156E-09  1.87762E-08  1.01013E-08  5.05330E-16  4.19271E-16
  6.250E-03  2.97478E-09  1.87762E-08  1.01013E-08  5.26385E-16  4.36741E-16
  6.500E-03  3.21752E-09  1.87762E-08  1.01013E-08  5.47441E-16  4.54210E-16
  6.750E-03  3.46978E-09  1.87762E-08  1.01013E-08  5.68496E-16  4.71680E-16
  7.000E-03  3.73156E-09  1.87762E-08  1.01013E-08  5.89552E-16  4.89149E-16
  7.250E-03  4.00286E-09  1.87762E-08  1.01013E-08  6.10607E-16  5.06619E-16
  7.500E-03  4.28368E-09  1.87762E-08  1.01013E-08  6.31662E-16  5.24089E-16
  7.750E-03  4.57402E-09  1.87762E-08  1.01013E-08  6.52718E-16  5.41558E-16
  8.000E-03  4.87388E-09  1.87762E-08  1.01013E-08  6.73773E-16  5.59028E-16
  8.250E-03  5.18326E-09  1.87762E-08  1.01013E-08  6.94829E-16  5.76498E-16
  8.500E-03  5.50215E-09  1.87762E-08  1.01013E-08  7.15884E-16  5.93967E-16
  8.750E-03  5.83057E-09  1.87762E-08  1.01013E-08  7.36939E-16  6.11437E-16
  9.000E-03  6.16850E-09  1.87762E-08  1.01013E-08  7.57995E-16  6.28906E-16
  9.250E-03  6.51596E-09  1.87762E-08  1.01013E-08  7.79050E-16  6.46376E-16
  9.500E-03  6.87293E-09  1.87762E-08  1.01013E-08  8.00106E-16  6.63846E-16
  9.750E-03  7.23942E-09  1.87762E-08  1.01013E-08  8.21161E-16  6.81315E-16
  1.000E-02  7.61544E-09  1.87762E-08  1.01013E-08  8.42216E-16  6.98785E-16
  1.250E-02  1.18991E-08  1.87762E-08  1.01013E-08  1.05277E-15  8.73481E-16
  1.500E-02  1.71347E-08  1.87761E-08  1.01013E-08  1.26332E-15  1.04818E-15
  1.750E-02  2.33223E-08  1.87761E-08  1.01013E-08  1.47388E-15  1.22287E-15
  2.000E-02  3.04617E-08  1.87761E-08  1.01013E-08  1.68443E-15  1.39757E-15
  2.250E-02  3.85531E-08  1.87761E-08  1.01013E-08  1.89498E-15  1.57227E-15
  2.500E-02  4.75965E-08  1.87761E-08  1.01013E-08  2.10554E-15  1.74696E-15
  2.750E-02  5.75917E-08  1.87761E-08  1.01013E-08  2.31609E-15  1.92166E-15
  3.000E-02  6.85389E-08  1.87761E-08  1.01013E-08  2.52664E-15  2.09635E-15
  3.250E-02  8.04380E-08  1.87761E-08  1.01013E-08  2.73719E-15  2.27105E-15
  3.500E-02  9.32891E-08  1.87761E-08  1.01013E-08  2.94775E-15  2.44575E-15
  3.750E-02  1.07092E-07  1.87761E-08  1.01013E-08  3.15830E-15  2.62044E-15
  4.000E-02  1.21847E-07  1.87761E-08  1.01013E-08  3.36885E-15  2.79514E-15
  4.250E-02  1.37554E-07  1.87761E-08  1.01013E-08  3.57940E-15  2.96983E-15
  4.500E-02  1.54213E-07  1.87760E-08  1.01013E-08  3.78995E-15  3.14453E-15
  4.750E-02  1.71823E-07  1.87760E-08  1.01013E-08  4.00050E-15  3.31922E-15
  5.000E-02  1.90386E-07  1.87760E-08  1.01013E-08  4.21105E-15  3.49392E-15
  5.250E-02  2.09900E-07  1.87760E-08  1.01013E-08  4.42159E-15  3.66862E-15
  5.500E-02  2.30367E-07  1.87760E-08  1.01013E-08  4.63214E-15  3.84331E-15
  5.750E-02  2.51785E-07  1.87760E-08  1.01013E-08  4.84269E-15  4.01801E-15
  6.000E-02  2.74156E-07  1.87759E-08  1.01013E-08  5.05324E-15  4.19270E-15
  6.250E-02  2.97478E-07  1.87759E-08  1.01013E-08  5.26378E-15  4.36740E-15
  6.500E-02  3.21752E-07  1.87759E-08  1.01013E-08  5.47433E-15  4.54209E-15
  6.750E-02  3.46978E-07  1.87759E-08  1.01013E-08  5.68487E-15  4.71679E-15
  7.000E-02  3.73156E-07  1.87759E-08  1.01013E-08  5.89541E-15  4.89148E-15
  7.250E-02  4.00286E-07  1.87758E-08  1.01013E-08  6.10596E-15  5.06618E-15
  7.500E-02  4.28368E-07  1.87758E-08  1.01013E-08  6.31650E-15  5.24087E-15
  7.750E-02  4.57402E-07  1.87758E-08  1.01013E-08  6.52704E-15  5.41556E-15
  8.000E-02  4.87388E-07  1.87758E-08  1.01013E-08  6.73758E-15  5.59026E-15
  8.250E-02  5.18325E-07  1.87757E-08  1.01013E-08  6.94812E-15  5.76495E-15
  8.500E-02  5.50215E-07  1.87757E-08  1.01013E-08  7.15866E-15  5.93965E-15
  8.750E-02  5.83057E-07  1.87757E-08  1.01013E-08  7.36919E-15  6.11434E-15
  9.000E-02  6.16850E-07  1.87757E-08  1.01013E-08  7.57973E-15  6.28904E-15
  9.250E-02  6.51596E-07  1.87756E-08  1.01013E-08  7.79027E-15  6.46373E-15
  9.500E-02  6.87293E-07  1.87756E-08  1.01013E-08  8.00080E-15  6.63842E-15
  9.750E-02  7.23942E-07  1.87756E-08  1.01013E-08  8.21133E-15  6.81312E-15
  1.000E-01  7.61543E-07  1.87755E-08  1.01013E-08  8.42187E-15  6.98781E-15
  1.250E-01  1.18991E-06  1.87752E-08  1.01012E-08  1.05271E-14  8.73473E-15
  1.500E-01  1.71347E-06  1.87748E-08  1.01012E-08  1.26322E-14  1.04816E-14
  1.750E-01  2.33223E-06  1.87743E-08  1.01011E-08  1.47372E-14  1.22285E-14
  2.000E-01  3.04617E-06  1.87737E-08  1.01010E-08  1.68419E-14  1.39754E-14
  2.250E-01  3.85531E-06  1.87731E-08  1.01009E-08  1.89465E-14  1.57222E-14
  2.500E-01  4.75964E-06  1.87723E-08  1.01009E-08  2.10507E-14  1.74690E-14
  2.750E-01  5.75916E-06  1.87715E-08  1.01008E-08  2.31547E-14  1.92157E-14
  3.000E-01  6.85388E-06  1.87706E-08  1.01006E-08  2.52584E-14  2.09625E-14
  3.250E-01  8.04378E-06  1.87697E-08  1.01005E-08  2.73618E-14  2.27091E-14
  3.500E-01  9.32888E-06  1.87686E-08  1.01004E-08  2.94647E-14  2.44557E-14
  3.750E-01  1.07092E-05  1.87675E-08  1.01003E-08  3.15673E-14  2.62023E-14
  4.000E-01  1.21846E-05  1.87663E-08  1.01001E-08  3.36695E-14  2.79488E-14
  4.250E-01  1.37553E-05  1.87651E-08  1.01000E-08  3.57712E-14  2.96953E-14
  4.500E-01  1.54212E-05  1.87637E-08  1.00998E-08  3.78724E-14  3.14417E-14
  4.750E-01  1.71822E-05  1.87623E-08  1.00996E-08  3.99732E-14  3.31880E-14
  5.000E-01  1.90385E-05  1.87608E-08  1.00994E-08  4.20734E-14  3.49342E-14
  5.250E-01  2.09899E-05  1.87593E-08  1.00992E-08  4.41730E-14  3.66804E-14
  5.500E-01  2.30365E-05  1.87576E-08  1.00990E-08  4.62721E-14  3.84265E-14
  5.750E-01  2.51783E-05  1.87559E-08  1.00988E-08  4.83705E-14  4.01725E-14
  6.000E-01  2.74153E-05  1.87541E-08  1.00986E-08  5.04683E-14  4.19184E-14
  6.250E-01  2.97475E-05  1.87522E-08  1.00984E-08  5.25654E-14  4.36642E-14
  6.500E-01  3.21749E-05  1.87503E-08  1.00981E-08  5.46618E-14  4.54100E-14
  6.750E-01  3.46974E-05  1.87482E-08  1.00979E-08  5.67575E-14  4.71556E-14
  7.000E-01  3.73152E-05  1.87461E-08  1.00976E-08  5.88524E-14  4.89012E-14
  7.250E-01  4.00281E-05  1.87439E-08  1.00973E-08  6.09466E-14  5.06466E-14
  7.500E-01  4.28362E-05  1.87417E-08  1.00970E-08  6.30399E-14  5.23919E-14
  7.750E-01  4.57395E-05  1.87394E-08  1.00968E-08  6.51324E-14  5.41371E-14
  8.000E-01  4.87380E-05  1.87369E-08  1.00965E-08  6.72240E-14  5.58822E-14
  8.250E-01  5.18317E-05  1.87345E-08  1.00961E-08  6.93148E-14  5.76272E-14
  8.500E-01  5.50205E-05  1.87319E-08  1.00958E-08  7.14046E-14  5.93720E-14
  8.750E-01  5.83045E-05  1.87293E-08  1.00955E-08  7.34934E-14  6.11168E-14
  9.000E-01  6.16838E-05  1.87266E-08  1.00952E-08  7.55813E-14  6.28613E-14
  9.250E-01  6.51582E-05  1.87238E-08  1.00948E-08  7.76682E-14  6.46058E-14
  9.500E-01  6.87277E-05  1.87209E-08  1.00945E-08  7.97540E-14  6.63501E-14
  9.750E-01  7.23925E-05  1.87180E-08  1.00941E-08  8.18388E-14  6.80943E-14
  1.000E+00  7.61524E-05  1.87149E-08  1.00937E-08  8.39225E-14  6.98383E-14
  1.100E+00  9.21439E-05  1.87021E-08  1.00921E-08  9.22458E-14  7.68128E-14
  1.200E+00  1.09658E-04  1.86881E-08  1.00904E-08  1.00549E-13  8.37847E-14
  1.300E+00  1.28695E-04  1.86729E-08  1.00885E-08  1.08832E-13  9.07538E-14
  1.400E+00  1.49255E-04  1.86564E-08  1.00864E-08  1.17091E-13  9.77196E-14
  1.500E+00  1.71338E-04  1.86388E-08  1.00842E-08  1.25325E-13  1.04682E-13
  1.600E+00  1.94942E-04  1.86200E-08  1.00819E-08  1.33533E-13  1.11641E-13
  1.700E+00  2.20070E-04  1.86000E-08  1.00793E-08  1.41713E-13  1.18596E-13
  1.800E+00  2.46720E-04  1.85788E-08  1.00767E-08  1.49863E-13  1.25547E-13
  1.900E+00  2.74892E-04  1.85564E-08  1.00739E-08  1.57981E-13  1.32494E-13
  2.000E+00  3.04586E-04  1.85329E-08  1.00709E-08  1.66065E-13  1.39436E-13
  2.100E+00  3.35803E-04  1.85082E-08  1.00678E-08  1.74115E-13  1.46373E-13
  2.200E+00  3.68542E-04  1.84824E-08  1.00645E-08  1.82128E-13  1.53305E-13
  2.300E+00  4.02802E-04  1.84554E-08  1.00611E-08  1.90103E-13  1.60232E-13
  2.400E+00  4.38585E-04  1.84272E-08  1.00576E-08  1.98039E-13  1.67154E-13
  2.500E+00  4.75889E-04  1.83979E-08  1.00539E-08  2.05932E-13  1.74070E-13
  2.600E+00  5.14715E-04  1.83675E-08  1.00500E-08  2.13783E-13  1.80979E-13
  2.700E+00  5.55063E-04  1.83360E-08  1.00460E-08  2.21590E-13  1.87883E-13
  2.800E+00  5.96931E-04  1.83033E-08  1.00418E-08  2.29350E-13  1.94780E-13
  2.900E+00  6.40321E-04  1.82696E-08  1.00375E-08  2.37062E-13  2.01671E-13
  3.000E+00  6.85233E-04  1.82348E-08  1.00331E-08  2.44726E-13  2.08554E-13
  3.100E+00  7.31665E-04  1.81988E-08  1.00285E-08  2.52339E-13  2.15431E-13
  3.200E+00  7.79618E-04  1.81618E-08  1.00237E-08  2.59900E-13  2.22300E-13
  3.300E+00  8.29092E-04  1.81237E-08  1.00188E-08  2.67407E-13  2.29161E-13
  3.400E+00  8.80086E-04  1.80846E-08  1.00138E-08  2.74860E-13  2.36015E-13
  3.500E+00  9.32601E-04  1.80444E-08  1.00086E-08  2.82256E-13  2.42860E-13
  3.600E+00  9.86636E-04  1.80032E-08  1.00032E-08  2.89595E-13  2.49698E-13
  3.700E+00  1.04219E-03  1.79609E-08  9.99774E-09  2.96875E-13  2.56526E-13
  3.800E+00  1.09927E-03  1.79177E-08  9.99211E-09  3.04094E-13  2.63346E-13
  3.900E+00  1.15786E-03  1.78734E-08  9.98633E-09  3.11252E-13  2.70158E-13
  4.000E+00  1.21797E-03  1.78281E-08  9.98041E-09  3.18347E-13  2.76959E-13
  4.100E+00  1.27961E-03  1.77818E-08  9.97434E-09  3.25378E-13  2.83752E-13
  4.200E+00  1.34276E-03  1.77346E-08  9.96812E-09  3.32344E-13  2.90535E-13
  4.300E+00  1.40743E-03  1.76864E-08  9.96176E-09  3.39243E-13  2.97308E-13
  4.400E+00  1.47362E-03  1.76372E-08  9.95526E-09  3.46074E-13  3.04071E-13
  4.500E+00  1.54133E-03  1.75871E-08  9.94861E-09  3.52836E-13  3.10823E-13
  4.600E+00  1.61056E-03  1.75361E-08  9.94182E-09  3.59529E-13  3.17565E-13
  4.700E+00  1.68131E-03  1.74841E-08  9.93489E-09  3.66150E-13  3.24297E-13
  4.800E+00  1.75357E-03  1.74312E-08  9.92782E-09  3.72699E-13  3.31017E-13
  4.900E+00  1.82735E-03  1.73775E-08  9.92060E-09  3.79175E-13  3.37726E-13
  5.000E+00  1.90265E-03  1.73228E-08  9.91324E-09  3.85577E-13  3.44424E-13
  5.100E+00  1.97947E-03  1.72673E-08  9.90574E-09  3.91904E-13  3.51110E-13
  5.200E+00  2.05780E-03  1.72110E-08  9.89810E-09  3.98154E-13  3.57785E-13
  5.300E+00  2.13765E-03  1.71538E-08  9.89032E-09  4.04327E-13  3.64447E-13
  5.400E+00  2.21902E-03  1.70957E-08  9.88240E-09  4.10423E-13  3.71097E-13
  5.500E+00  2.30190E-03  1.70369E-08  9.87434E-09  4.16439E-13  3.77735E-13
  5.600E+00  2.38630E-03  1.69772E-08  9.86614E-09  4.22376E-13  3.84360E-13
  5.700E+00  2.47222E-03  1.69168E-08  9.85780E-09  4.28232E-13  3.90973E-13
  5.800E+00  2.55965E-03  1.68555E-08  9.84933E-09  4.34006E-13  3.97572E-13
  5.900E+00  2.64859E-03  1.67935E-08  9.84072E-09  4.39699E-13  4.04158E-13
  6.000E+00  2.73905E-03  1.67308E-08  9.83197E-09  4.45309E-13  4.10730E-13
  6.100E+00  2.83103E-03  1.66673E-08  9.82308E-09  4.50835E-13  4.17289E-13
  6.200E+00  2.92452E-03  1.66031E-08  9.81406E-09  4.56277E-13  4.23834E-13
  6.300E+00  3.01952E-03  1.65381E-08  9.80490E-09  4.61633E-13  4.30364E-13
  6.400E+00  3.11604E-03  1.64725E-08  9.79561E-09  4.66905E-13  4.36881E-13
  6.500E+00  3.21407E-03  1.64062E-08  9.78619E-09  4.72090E-13  4.43383E-13
  6.600E+00  3.31362E-03  1.63392E-08  9.77663E-09  4.77188E-13  4.49870E-13
  6.700E+00  3.41468E-03  1.62716E-08  9.76693E-09  4.82199E-13  4.56343E-13
  6.800E+00  3.51725E-03  1.62033E-08  9.75711E-09  4.87123E-13  4.62800E-13
  6.900E+00  3.62133E-03  1.61344E-08  9.74715E-09  4.91958E-13  4.69242E-13
  7.000E+00  3.72692E-03  1.60649E-08  9.73706E-09  4.96704E-13  4.75669E-13
  7.100E+00  3.83403E-03  1.59947E-08  9.72684E-09  5.01361E-13  4.82080E-13
  7.200E+00  3.94265E-03  1.59240E-08  9.71649E-09  5.05928E-13  4.88475E-13
  7.300E+00  4.05278E-03  1.58527E-08  9.70601E-09  5.10406E-13  4.94854E-13
  7.400E+00  4.16442E-03  1.57809E-08  9.69540E-09  5.14793E-13  5.01217E-13
  7.500E+00  4.27757E-03  1.57085E-08  9.68467E-09  5.19089E-13  5.07564E-13
  7.600E+00  4.39223E-03  1.56355E-08  9.67380E-09  5.23294E-13  5.13894E-13
  7.700E+00  4.50840E-03  1.55621E-08  9.66281E-09  5.27408E-13  5.20207E-13
  7.800E+00  4.62608E-03  1.54881E-08  9.65169E-09  5.31431E-13  5.26503E-13
  7.900E+00  4.74527E-03  1.54136E-08  9.64044E-09  5.35361E-13  5.32783E-13
  8.000E+00  4.86597E-03  1.53387E-08  9.62907E-09  5.39200E-13  5.39044E-13
  8.100E+00  4.98817E-03  1.52633E-08  9.61757E-09  5.42947E-13  5.45289E-13
  8.200E+00  5.11188E-03  1.51874E-08  9.60595E-09  5.46601E-13  5.51516E-13
  8.300E+00  5.23711E-03  1.51111E-08  9.59421E-09  5.50162E-13  5.57725E-13
  8.400E+00  5.36383E-03  1.50344E-08  9.58234E-09  5.53632E-13  5.63916E-13
  8.500E+00  5.49207E-03  1.49573E-08  9.57035E-09  5.57008E-13  5.70089E-13
  8.600E+00  5.62181E-03  1.48797E-08  9.55824E-09  5.60292E-13  5.76243E-13
  8.700E+00  5.75306E-03  1.48018E-08  9.54601E-09  5.63483E-13  5.82379E-13
  8.800E+00  5.88581E-03  1.47235E-08  9.53366E-09  5.66581E-13  5.88497E-13
  8.900E+00  6.02007E-03  1.46448E-08  9.52119E-09  5.69586E-13  5.94596E-13
  9.000E+00  6.15583E-03  1.45658E-08  9.50860E-09  5.72499E-13  6.00675E-13
  9.100E+00  6.29310E-03  1.44865E-08  9.49589E-09  5.75319E-13  6.06736E-13
  9.200E+00  6.43187E-03  1.44068E-08  9.48306E-09  5.78046E-13  6.12777E-13
  9.300E+00  6.57214E-03  1.43269E-08  9.47012E-09  5.80681E-13  6.18799E-13
  9.400E+00  6.71392E-03  1.42466E-08  9.45706E-09  5.83223E-13  6.24801E-13
  9.500E+00  6.85720E-03  1.41661E-08  9.44389E-09  5.85673E-13  6.30783E-13
  9.600E+00  7.00198E-03  1.40852E-08  9.43060E-09  5.88031E-13  6.36746E-13
  9.700E+00  7.14827E-03  1.40042E-08  9.41719E-09  5.90297E-13  6.42688E-13
  9.800E+00  7.29605E-03  1.39228E-08  9.40368E-09  5.92471E-13  6.48610E-13
  9.900E+00  7.44534E-03  1.38413E-08  9.39005E-09  5.94553E-13  6.54512E-13
  1.000E+01  7.59612E-03  1.37595E-08  9.37631E-09  5.96544E-13  6.60393E-13
  1.025E+01  7.97965E-03  1.35541E-08  9.34147E-09  6.01124E-13  6.75006E-13
  1.050E+01  8.37255E-03  1.33476E-08  9.30595E-09  6.05138E-13  6.89487E-13
  1.075E+01  8.77480E-03  1.31402E-08  9.26976E-09  6.08592E-13  7.03835E-13
  1.100E+01  9.18641E-03  1.29319E-08  9.23291E-09  6.11492E-13  7.18048E-13
  1.125E+01  9.60736E-03  1.27231E-08  9.19542E-09  6.13843E-13  7.32123E-13
  1.150E+01  1.00376E-02  1.25138E-08  9.15729E-09  6.15652E-13  7.46058E-13
  1.175E+01  1.04773E-02  1.23042E-08  9.11853E-09  6.16926E-13  7.59852E-13
  1.200E+01  1.09262E-02  1.20944E-08  9.07917E-09  6.17673E-13  7.73503E-13
  1.225E+01  1.13844E-02  1.18847E-08  9.03920E-09  6.17901E-13  7.87010E-13
  1.250E+01  1.18520E-02  1.16751E-08  8.99865E-09  6.17619E-13  8.00369E-13
  1.275E+01  1.23288E-02  1.14658E-08  8.95753E-09  6.16834E-13  8.13580E-13
  1.300E+01  1.28150E-02  1.12569E-08  8.91585E-09  6.15557E-13  8.26642E-13
  1.325E+01  1.33104E-02  1.10485E-08  8.87361E-09  6.13797E-13  8.39553E-13
  1.350E+01  1.38150E-02  1.08408E-08  8.83085E-09  6.11563E-13  8.52311E-13
  1.375E+01  1.43290E-02  1.06339E-08  8.78756E-09  6.08866E-13  8.64915E-13
  1.400E+01  1.48521E-02  1.04278E-08  8.74376E-09  6.05715E-13  8.77363E-13
  1.425E+01  1.53845E-02  1.02228E-08  8.69946E-09  6.02121E-13  8.89656E-13
  1.450E+01  1.59262E-02  1.00188E-08  8.65468E-09  5.98095E-13  9.01791E-13
  1.475E+01  1.64770E-02  9.81605E-09  8.60943E-09  5.93646E-13  9.13767E-13
  1.500E+01  1.70371E-02  9.61455E-09  8.56371E-09  5.88787E-13  9.25584E-13
