 #  Scattering amplitudes (in cm)      MU=(1-cos(TH))/2
 #  Z =   8,   projectile: electron
 #  Kinetic energy = 2.36000E+02 eV
 #
 # TH (deg)      MU          Re(F)        Im(F)        Re(G)        Im(G)
 #--------------------------------------------------------------------------
  0.000E+00  0.00000E+00  1.25330E-08  9.20708E-09  0.00000E+00  0.00000E+00
  1.000E-04  7.61557E-13  1.25330E-08  9.20708E-09  2.22549E-18  5.40956E-18
  1.250E-04  1.18994E-12  1.25330E-08  9.20708E-09  2.78187E-18  6.76195E-18
  1.500E-04  1.71346E-12  1.25330E-08  9.20708E-09  3.33824E-18  8.11434E-18
  1.750E-04  2.33225E-12  1.25330E-08  9.20708E-09  3.89461E-18  9.46673E-18
  2.000E-04  3.04617E-12  1.25330E-08  9.20708E-09  4.45099E-18  1.08191E-17
  2.250E-04  3.85530E-12  1.25330E-08  9.20708E-09  5.00736E-18  1.21715E-17
  2.500E-04  4.75964E-12  1.25330E-08  9.20708E-09  5.56373E-18  1.35239E-17
  2.750E-04  5.75917E-12  1.25330E-08  9.20708E-09  6.12011E-18  1.48763E-17
  3.000E-04  6.85391E-12  1.25330E-08  9.20708E-09  6.67648E-18  1.62287E-17
  3.250E-04  8.04379E-12  1.25330E-08  9.20708E-09  7.23285E-18  1.75811E-17
  3.500E-04  9.32893E-12  1.25330E-08  9.20708E-09  7.78923E-18  1.89335E-17
  3.750E-04  1.07092E-11  1.25330E-08  9.20708E-09  8.34560E-18  2.02858E-17
  4.000E-04  1.21847E-11  1.25330E-08  9.20708E-09  8.90197E-18  2.16382E-17
  4.250E-04  1.37554E-11  1.25330E-08  9.20708E-09  9.45835E-18  2.29906E-17
  4.500E-04  1.54213E-11  1.25330E-08  9.20708E-09  1.00147E-17  2.43430E-17
  4.750E-04  1.71823E-11  1.25330E-08  9.20708E-09  1.05711E-17  2.56954E-17
  5.000E-04  1.90386E-11  1.25330E-08  9.20708E-09  1.11275E-17  2.70478E-17
  5.250E-04  2.09900E-11  1.25330E-08  9.20708E-09  1.16838E-17  2.84002E-17
  5.500E-04  2.30367E-11  1.25330E-08  9.20708E-09  1.22402E-17  2.97526E-17
  5.750E-04  2.51785E-11  1.25330E-08  9.20708E-09  1.27966E-17  3.11050E-17
  6.000E-04  2.74156E-11  1.25330E-08  9.20708E-09  1.33530E-17  3.24574E-17
  6.250E-04  2.97478E-11  1.25330E-08  9.20708E-09  1.39093E-17  3.38097E-17
  6.500E-04  3.21752E-11  1.25330E-08  9.20708E-09  1.44657E-17  3.51621E-17
  6.750E-04  3.46979E-11  1.25330E-08  9.20708E-09  1.50221E-17  3.65145E-17
  7.000E-04  3.73157E-11  1.25330E-08  9.20708E-09  1.55785E-17  3.78669E-17
  7.250E-04  4.00286E-11  1.25330E-08  9.20708E-09  1.61348E-17  3.92193E-17
  7.500E-04  4.28368E-11  1.25330E-08  9.20708E-09  1.66912E-17  4.05717E-17
  7.750E-04  4.57402E-11  1.25330E-08  9.20708E-09  1.72476E-17  4.19241E-17
  8.000E-04  4.87388E-11  1.25330E-08  9.20708E-09  1.78039E-17  4.32765E-17
  8.250E-04  5.18325E-11  1.25330E-08  9.20708E-09  1.83603E-17  4.46289E-17
  8.500E-04  5.50215E-11  1.25330E-08  9.20708E-09  1.89167E-17  4.59813E-17
  8.750E-04  5.83057E-11  1.25330E-08  9.20708E-09  1.94731E-17  4.73336E-17
  9.000E-04  6.16850E-11  1.25330E-08  9.20708E-09  2.00294E-17  4.86860E-17
  9.250E-04  6.51595E-11  1.25330E-08  9.20708E-09  2.05858E-17  5.00384E-17
  9.500E-04  6.87293E-11  1.25330E-08  9.20708E-09  2.11422E-17  5.13908E-17
  9.750E-04  7.23943E-11  1.25330E-08  9.20708E-09  2.16986E-17  5.27432E-17
  1.000E-03  7.61544E-11  1.25330E-08  9.20708E-09  2.22549E-17  5.40956E-17
  1.250E-03  1.18991E-10  1.25330E-08  9.20708E-09  2.78187E-17  6.76195E-17
  1.500E-03  1.71347E-10  1.25330E-08  9.20708E-09  3.33824E-17  8.11434E-17
  1.750E-03  2.33223E-10  1.25330E-08  9.20708E-09  3.89461E-17  9.46673E-17
  2.000E-03  3.04617E-10  1.25330E-08  9.20708E-09  4.45099E-17  1.08191E-16
  2.250E-03  3.85531E-10  1.25330E-08  9.20708E-09  5.00736E-17  1.21715E-16
  2.500E-03  4.75965E-10  1.25330E-08  9.20708E-09  5.56373E-17  1.35239E-16
  2.750E-03  5.75917E-10  1.25330E-08  9.20708E-09  6.12011E-17  1.48763E-16
  3.000E-03  6.85389E-10  1.25330E-08  9.20708E-09  6.67648E-17  1.62287E-16
  3.250E-03  8.04380E-10  1.25330E-08  9.20708E-09  7.23285E-17  1.75811E-16
  3.500E-03  9.32891E-10  1.25330E-08  9.20708E-09  7.78923E-17  1.89335E-16
  3.750E-03  1.07092E-09  1.25330E-08  9.20708E-09  8.34560E-17  2.02858E-16
  4.000E-03  1.21847E-09  1.25330E-08  9.20708E-09  8.90197E-17  2.16382E-16
  4.250E-03  1.37554E-09  1.25330E-08  9.20708E-09  9.45835E-17  2.29906E-16
  4.500E-03  1.54213E-09  1.25330E-08  9.20708E-09  1.00147E-16  2.43430E-16
  4.750E-03  1.71823E-09  1.25330E-08  9.20708E-09  1.05711E-16  2.56954E-16
  5.000E-03  1.90386E-09  1.25330E-08  9.20708E-09  1.11275E-16  2.70478E-16
  5.250E-03  2.09900E-09  1.25330E-08  9.20708E-09  1.16838E-16  2.84002E-16
  5.500E-03  2.30367E-09  1.25330E-08  9.20708E-09  1.22402E-16  2.97526E-16
  5.750E-03  2.51785E-09  1.25330E-08  9.20708E-09  1.27966E-16  3.11050E-16
  6.000E-03  2.74156E-09  1.25330E-08  9.20708E-09  1.33530E-16  3.24574E-16
  6.250E-03  2.97478E-09  1.25330E-08  9.20708E-09  1.39093E-16  3.38097E-16
  6.500E-03  3.21752E-09  1.25330E-08  9.20708E-09  1.44657E-16  3.51621E-16
  6.750E-03  3.46978E-09  1.25330E-08  9.20708E-09  1.50221E-16  3.65145E-16
  7.000E-03  3.73156E-09  1.25330E-08  9.20708E-09  1.55785E-16  3.78669E-16
  7.250E-03  4.00286E-09  1.25330E-08  9.20708E-09  1.61348E-16  3.92193E-16
  7.500E-03  4.28368E-09  1.25330E-08  9.20708E-09  1.66912E-16  4.05717E-16
  7.750E-03  4.57402E-09  1.25330E-08  9.20708E-09  1.72476E-16  4.19241E-16
  8.000E-03  4.87388E-09  1.25330E-08  9.20708E-09  1.78039E-16  4.32765E-16
  8.250E-03  5.18326E-09  1.25330E-08  9.20708E-09  1.83603E-16  4.46289E-16
  8.500E-03  5.50215E-09  1.25330E-08  9.20708E-09  1.89167E-16  4.59813E-16
  8.750E-03  5.83057E-09  1.25330E-08  9.20708E-09  1.94731E-16  4.73336E-16
  9.000E-03  6.16850E-09  1.25330E-08  9.20708E-09  2.00294E-16  4.86860E-16
  9.250E-03  6.51596E-09  1.25330E-08  9.20708E-09  2.05858E-16  5.00384E-16
  9.500E-03  6.87293E-09  1.25330E-08  9.20708E-09  2.11422E-16  5.13908E-16
  9.750E-03  7.23942E-09  1.25330E-08  9.20708E-09  2.16986E-16  5.27432E-16
  1.000E-02  7.61544E-09  1.25330E-08  9.20708E-09  2.22549E-16  5.40956E-16
  1.250E-02  1.18991E-08  1.25330E-08  9.20708E-09  2.78186E-16  6.76195E-16
  1.500E-02  1.71347E-08  1.25330E-08  9.20708E-09  3.33824E-16  8.11434E-16
  1.750E-02  2.33223E-08  1.25330E-08  9.20708E-09  3.89461E-16  9.46673E-16
  2.000E-02  3.04617E-08  1.25330E-08  9.20707E-09  4.45098E-16  1.08191E-15
  2.250E-02  3.85531E-08  1.25330E-08  9.20707E-09  5.00735E-16  1.21715E-15
  2.500E-02  4.75965E-08  1.25330E-08  9.20707E-09  5.56372E-16  1.35239E-15
  2.750E-02  5.75917E-08  1.25330E-08  9.20707E-09  6.12008E-16  1.48763E-15
  3.000E-02  6.85389E-08  1.25330E-08  9.20707E-09  6.67645E-16  1.62287E-15
  3.250E-02  8.04380E-08  1.25330E-08  9.20707E-09  7.23282E-16  1.75811E-15
  3.500E-02  9.32891E-08  1.25330E-08  9.20707E-09  7.78918E-16  1.89334E-15
  3.750E-02  1.07092E-07  1.25330E-08  9.20707E-09  8.34554E-16  2.02858E-15
  4.000E-02  1.21847E-07  1.25330E-08  9.20707E-09  8.90190E-16  2.16382E-15
  4.250E-02  1.37554E-07  1.25330E-08  9.20707E-09  9.45826E-16  2.29906E-15
  4.500E-02  1.54213E-07  1.25330E-08  9.20707E-09  1.00146E-15  2.43430E-15
  4.750E-02  1.71823E-07  1.25330E-08  9.20707E-09  1.05710E-15  2.56954E-15
  5.000E-02  1.90386E-07  1.25330E-08  9.20706E-09  1.11273E-15  2.70478E-15
  5.250E-02  2.09900E-07  1.25330E-08  9.20706E-09  1.16837E-15  2.84002E-15
  5.500E-02  2.30367E-07  1.25330E-08  9.20706E-09  1.22400E-15  2.97525E-15
  5.750E-02  2.51785E-07  1.25330E-08  9.20706E-09  1.27964E-15  3.11049E-15
  6.000E-02  2.74156E-07  1.25330E-08  9.20706E-09  1.33527E-15  3.24573E-15
  6.250E-02  2.97478E-07  1.25329E-08  9.20706E-09  1.39091E-15  3.38097E-15
  6.500E-02  3.21752E-07  1.25329E-08  9.20706E-09  1.44654E-15  3.51621E-15
  6.750E-02  3.46978E-07  1.25329E-08  9.20705E-09  1.50217E-15  3.65145E-15
  7.000E-02  3.73156E-07  1.25329E-08  9.20705E-09  1.55781E-15  3.78668E-15
  7.250E-02  4.00286E-07  1.25329E-08  9.20705E-09  1.61344E-15  3.92192E-15
  7.500E-02  4.28368E-07  1.25329E-08  9.20705E-09  1.66907E-15  4.05716E-15
  7.750E-02  4.57402E-07  1.25329E-08  9.20705E-09  1.72471E-15  4.19240E-15
  8.000E-02  4.87388E-07  1.25329E-08  9.20705E-09  1.78034E-15  4.32764E-15
  8.250E-02  5.18325E-07  1.25329E-08  9.20704E-09  1.83597E-15  4.46287E-15
  8.500E-02  5.50215E-07  1.25329E-08  9.20704E-09  1.89160E-15  4.59811E-15
  8.750E-02  5.83057E-07  1.25329E-08  9.20704E-09  1.94723E-15  4.73335E-15
  9.000E-02  6.16850E-07  1.25328E-08  9.20704E-09  2.00286E-15  4.86859E-15
  9.250E-02  6.51596E-07  1.25328E-08  9.20704E-09  2.05850E-15  5.00382E-15
  9.500E-02  6.87293E-07  1.25328E-08  9.20703E-09  2.11413E-15  5.13906E-15
  9.750E-02  7.23942E-07  1.25328E-08  9.20703E-09  2.16975E-15  5.27430E-15
  1.000E-01  7.61543E-07  1.25328E-08  9.20703E-09  2.22538E-15  5.40954E-15
  1.250E-01  1.18991E-06  1.25326E-08  9.20700E-09  2.78165E-15  6.76190E-15
  1.500E-01  1.71347E-06  1.25325E-08  9.20697E-09  3.33787E-15  8.11426E-15
  1.750E-01  2.33223E-06  1.25323E-08  9.20693E-09  3.89403E-15  9.46660E-15
  2.000E-01  3.04617E-06  1.25320E-08  9.20689E-09  4.45011E-15  1.08189E-14
  2.250E-01  3.85531E-06  1.25318E-08  9.20683E-09  5.00612E-15  1.21712E-14
  2.500E-01  4.75964E-06  1.25315E-08  9.20678E-09  5.56203E-15  1.35235E-14
  2.750E-01  5.75916E-06  1.25311E-08  9.20672E-09  6.11783E-15  1.48758E-14
  3.000E-01  6.85388E-06  1.25308E-08  9.20665E-09  6.67353E-15  1.62280E-14
  3.250E-01  8.04378E-06  1.25304E-08  9.20657E-09  7.22910E-15  1.75803E-14
  3.500E-01  9.32888E-06  1.25299E-08  9.20649E-09  7.78454E-15  1.89324E-14
  3.750E-01  1.07092E-05  1.25295E-08  9.20641E-09  8.33984E-15  2.02846E-14
  4.000E-01  1.21846E-05  1.25290E-08  9.20631E-09  8.89498E-15  2.16367E-14
  4.250E-01  1.37553E-05  1.25284E-08  9.20621E-09  9.44996E-15  2.29888E-14
  4.500E-01  1.54212E-05  1.25279E-08  9.20611E-09  1.00048E-14  2.43409E-14
  4.750E-01  1.71822E-05  1.25273E-08  9.20600E-09  1.05594E-14  2.56929E-14
  5.000E-01  1.90385E-05  1.25267E-08  9.20588E-09  1.11138E-14  2.70449E-14
  5.250E-01  2.09899E-05  1.25260E-08  9.20576E-09  1.16680E-14  2.83968E-14
  5.500E-01  2.30365E-05  1.25253E-08  9.20563E-09  1.22220E-14  2.97487E-14
  5.750E-01  2.51783E-05  1.25246E-08  9.20550E-09  1.27758E-14  3.11005E-14
  6.000E-01  2.74153E-05  1.25239E-08  9.20536E-09  1.33294E-14  3.24523E-14
  6.250E-01  2.97475E-05  1.25231E-08  9.20521E-09  1.38827E-14  3.38040E-14
  6.500E-01  3.21749E-05  1.25223E-08  9.20506E-09  1.44357E-14  3.51557E-14
  6.750E-01  3.46974E-05  1.25214E-08  9.20490E-09  1.49885E-14  3.65073E-14
  7.000E-01  3.73152E-05  1.25205E-08  9.20474E-09  1.55410E-14  3.78589E-14
  7.250E-01  4.00281E-05  1.25196E-08  9.20457E-09  1.60932E-14  3.92103E-14
  7.500E-01  4.28362E-05  1.25187E-08  9.20439E-09  1.66451E-14  4.05618E-14
  7.750E-01  4.57395E-05  1.25177E-08  9.20421E-09  1.71967E-14  4.19131E-14
  8.000E-01  4.87380E-05  1.25167E-08  9.20402E-09  1.77480E-14  4.32644E-14
  8.250E-01  5.18317E-05  1.25157E-08  9.20383E-09  1.82990E-14  4.46157E-14
  8.500E-01  5.50205E-05  1.25146E-08  9.20363E-09  1.88496E-14  4.59668E-14
  8.750E-01  5.83045E-05  1.25135E-08  9.20342E-09  1.93999E-14  4.73179E-14
  9.000E-01  6.16838E-05  1.25124E-08  9.20321E-09  1.99499E-14  4.86689E-14
  9.250E-01  6.51582E-05  1.25112E-08  9.20299E-09  2.04994E-14  5.00198E-14
  9.500E-01  6.87277E-05  1.25100E-08  9.20277E-09  2.10486E-14  5.13707E-14
  9.750E-01  7.23925E-05  1.25088E-08  9.20254E-09  2.15974E-14  5.27214E-14
  1.000E+00  7.61524E-05  1.25076E-08  9.20230E-09  2.21458E-14  5.40721E-14
  1.100E+00  9.21439E-05  1.25022E-08  9.20130E-09  2.43352E-14  5.94739E-14
  1.200E+00  1.09658E-04  1.24964E-08  9.20020E-09  2.65174E-14  6.48741E-14
  1.300E+00  1.28695E-04  1.24900E-08  9.19901E-09  2.86918E-14  7.02726E-14
  1.400E+00  1.49255E-04  1.24831E-08  9.19772E-09  3.08578E-14  7.56693E-14
  1.500E+00  1.71338E-04  1.24758E-08  9.19634E-09  3.30146E-14  8.10641E-14
  1.600E+00  1.94942E-04  1.24679E-08  9.19486E-09  3.51617E-14  8.64567E-14
  1.700E+00  2.20070E-04  1.24595E-08  9.19329E-09  3.72983E-14  9.18471E-14
  1.800E+00  2.46720E-04  1.24507E-08  9.19162E-09  3.94240E-14  9.72350E-14
  1.900E+00  2.74892E-04  1.24413E-08  9.18985E-09  4.15380E-14  1.02620E-13
  2.000E+00  3.04586E-04  1.24314E-08  9.18800E-09  4.36398E-14  1.08003E-13
  2.100E+00  3.35803E-04  1.24211E-08  9.18604E-09  4.57286E-14  1.13383E-13
  2.200E+00  3.68542E-04  1.24102E-08  9.18399E-09  4.78039E-14  1.18760E-13
  2.300E+00  4.02802E-04  1.23989E-08  9.18185E-09  4.98650E-14  1.24134E-13
  2.400E+00  4.38585E-04  1.23870E-08  9.17961E-09  5.19114E-14  1.29505E-13
  2.500E+00  4.75889E-04  1.23747E-08  9.17728E-09  5.39424E-14  1.34872E-13
  2.600E+00  5.14715E-04  1.23619E-08  9.17485E-09  5.59574E-14  1.40236E-13
  2.700E+00  5.55063E-04  1.23486E-08  9.17233E-09  5.79558E-14  1.45596E-13
  2.800E+00  5.96931E-04  1.23348E-08  9.16972E-09  5.99369E-14  1.50952E-13
  2.900E+00  6.40321E-04  1.23205E-08  9.16701E-09  6.19003E-14  1.56305E-13
  3.000E+00  6.85233E-04  1.23058E-08  9.16420E-09  6.38453E-14  1.61653E-13
  3.100E+00  7.31665E-04  1.22905E-08  9.16130E-09  6.57713E-14  1.66997E-13
  3.200E+00  7.79618E-04  1.22748E-08  9.15831E-09  6.76777E-14  1.72337E-13
  3.300E+00  8.29092E-04  1.22586E-08  9.15522E-09  6.95639E-14  1.77673E-13
  3.400E+00  8.80086E-04  1.22420E-08  9.15204E-09  7.14294E-14  1.83003E-13
  3.500E+00  9.32601E-04  1.22249E-08  9.14877E-09  7.32736E-14  1.88329E-13
  3.600E+00  9.86636E-04  1.22073E-08  9.14540E-09  7.50960E-14  1.93651E-13
  3.700E+00  1.04219E-03  1.21892E-08  9.14194E-09  7.68959E-14  1.98967E-13
  3.800E+00  1.09927E-03  1.21707E-08  9.13839E-09  7.86727E-14  2.04278E-13
  3.900E+00  1.15786E-03  1.21517E-08  9.13474E-09  8.04261E-14  2.09583E-13
  4.000E+00  1.21797E-03  1.21323E-08  9.13100E-09  8.21553E-14  2.14883E-13
  4.100E+00  1.27961E-03  1.21124E-08  9.12716E-09  8.38599E-14  2.20178E-13
  4.200E+00  1.34276E-03  1.20920E-08  9.12324E-09  8.55393E-14  2.25467E-13
  4.300E+00  1.40743E-03  1.20712E-08  9.11922E-09  8.71930E-14  2.30750E-13
  4.400E+00  1.47362E-03  1.20500E-08  9.11510E-09  8.88205E-14  2.36027E-13
  4.500E+00  1.54133E-03  1.20283E-08  9.11090E-09  9.04212E-14  2.41298E-13
  4.600E+00  1.61056E-03  1.20062E-08  9.10660E-09  9.19946E-14  2.46563E-13
  4.700E+00  1.68131E-03  1.19836E-08  9.10221E-09  9.35403E-14  2.51821E-13
  4.800E+00  1.75357E-03  1.19606E-08  9.09773E-09  9.50576E-14  2.57073E-13
  4.900E+00  1.82735E-03  1.19372E-08  9.09315E-09  9.65462E-14  2.62318E-13
  5.000E+00  1.90265E-03  1.19133E-08  9.08848E-09  9.80055E-14  2.67557E-13
  5.100E+00  1.97947E-03  1.18891E-08  9.08373E-09  9.94351E-14  2.72788E-13
  5.200E+00  2.05780E-03  1.18644E-08  9.07888E-09  1.00834E-13  2.78012E-13
  5.300E+00  2.13765E-03  1.18392E-08  9.07394E-09  1.02203E-13  2.83230E-13
  5.400E+00  2.21902E-03  1.18137E-08  9.06890E-09  1.03541E-13  2.88440E-13
  5.500E+00  2.30190E-03  1.17877E-08  9.06378E-09  1.04846E-13  2.93642E-13
  5.600E+00  2.38630E-03  1.17614E-08  9.05856E-09  1.06120E-13  2.98837E-13
  5.700E+00  2.47222E-03  1.17346E-08  9.05326E-09  1.07361E-13  3.04024E-13
  5.800E+00  2.55965E-03  1.17074E-08  9.04786E-09  1.08570E-13  3.09204E-13
  5.900E+00  2.64859E-03  1.16798E-08  9.04238E-09  1.09745E-13  3.14375E-13
  6.000E+00  2.73905E-03  1.16519E-08  9.03680E-09  1.10886E-13  3.19539E-13
  6.100E+00  2.83103E-03  1.16235E-08  9.03113E-09  1.11992E-13  3.24694E-13
  6.200E+00  2.92452E-03  1.15948E-08  9.02537E-09  1.13065E-13  3.29841E-13
  6.300E+00  3.01952E-03  1.15656E-08  9.01953E-09  1.14102E-13  3.34979E-13
  6.400E+00  3.11604E-03  1.15361E-08  9.01359E-09  1.15103E-13  3.40109E-13
  6.500E+00  3.21407E-03  1.15062E-08  9.00757E-09  1.16069E-13  3.45230E-13
  6.600E+00  3.31362E-03  1.14760E-08  9.00145E-09  1.16999E-13  3.50342E-13
  6.700E+00  3.41468E-03  1.14453E-08  8.99525E-09  1.17892E-13  3.55445E-13
  6.800E+00  3.51725E-03  1.14143E-08  8.98895E-09  1.18748E-13  3.60539E-13
  6.900E+00  3.62133E-03  1.13829E-08  8.98257E-09  1.19567E-13  3.65623E-13
  7.000E+00  3.72692E-03  1.13512E-08  8.97610E-09  1.20348E-13  3.70699E-13
  7.100E+00  3.83403E-03  1.13191E-08  8.96954E-09  1.21091E-13  3.75765E-13
  7.200E+00  3.94265E-03  1.12867E-08  8.96290E-09  1.21796E-13  3.80821E-13
  7.300E+00  4.05278E-03  1.12539E-08  8.95616E-09  1.22462E-13  3.85867E-13
  7.400E+00  4.16442E-03  1.12208E-08  8.94934E-09  1.23088E-13  3.90904E-13
  7.500E+00  4.27757E-03  1.11873E-08  8.94243E-09  1.23676E-13  3.95931E-13
  7.600E+00  4.39223E-03  1.11535E-08  8.93543E-09  1.24224E-13  4.00947E-13
  7.700E+00  4.50840E-03  1.11194E-08  8.92835E-09  1.24732E-13  4.05954E-13
  7.800E+00  4.62608E-03  1.10850E-08  8.92118E-09  1.25200E-13  4.10950E-13
  7.900E+00  4.74527E-03  1.10502E-08  8.91392E-09  1.25627E-13  4.15935E-13
  8.000E+00  4.86597E-03  1.10151E-08  8.90658E-09  1.26014E-13  4.20910E-13
  8.100E+00  4.98817E-03  1.09797E-08  8.89915E-09  1.26359E-13  4.25874E-13
  8.200E+00  5.11188E-03  1.09439E-08  8.89163E-09  1.26663E-13  4.30827E-13
  8.300E+00  5.23711E-03  1.09079E-08  8.88403E-09  1.26926E-13  4.35770E-13
  8.400E+00  5.36383E-03  1.08716E-08  8.87635E-09  1.27146E-13  4.40701E-13
  8.500E+00  5.49207E-03  1.08349E-08  8.86857E-09  1.27325E-13  4.45621E-13
  8.600E+00  5.62181E-03  1.07980E-08  8.86072E-09  1.27461E-13  4.50530E-13
  8.700E+00  5.75306E-03  1.07608E-08  8.85277E-09  1.27554E-13  4.55427E-13
  8.800E+00  5.88581E-03  1.07233E-08  8.84475E-09  1.27605E-13  4.60313E-13
  8.900E+00  6.02007E-03  1.06855E-08  8.83664E-09  1.27613E-13  4.65187E-13
  9.000E+00  6.15583E-03  1.06474E-08  8.82844E-09  1.27578E-13  4.70050E-13
  9.100E+00  6.29310E-03  1.06091E-08  8.82017E-09  1.27499E-13  4.74900E-13
  9.200E+00  6.43187E-03  1.05705E-08  8.81180E-09  1.27377E-13  4.79738E-13
  9.300E+00  6.57214E-03  1.05316E-08  8.80336E-09  1.27211E-13  4.84565E-13
  9.400E+00  6.71392E-03  1.04925E-08  8.79483E-09  1.27001E-13  4.89379E-13
  9.500E+00  6.85720E-03  1.04531E-08  8.78622E-09  1.26746E-13  4.94180E-13
  9.600E+00  7.00198E-03  1.04134E-08  8.77753E-09  1.26448E-13  4.98970E-13
  9.700E+00  7.14827E-03  1.03735E-08  8.76875E-09  1.26105E-13  5.03746E-13
  9.800E+00  7.29605E-03  1.03334E-08  8.75990E-09  1.25718E-13  5.08510E-13
  9.900E+00  7.44534E-03  1.02930E-08  8.75096E-09  1.25285E-13  5.13261E-13
  1.000E+01  7.59612E-03  1.02524E-08  8.74194E-09  1.24808E-13  5.18000E-13
  1.025E+01  7.97965E-03  1.01499E-08  8.71903E-09  1.23419E-13  5.29788E-13
  1.050E+01  8.37255E-03  1.00459E-08  8.69562E-09  1.21747E-13  5.41493E-13
  1.075E+01  8.77480E-03  9.94067E-09  8.67171E-09  1.19790E-13  5.53114E-13
  1.100E+01  9.18641E-03  9.83416E-09  8.64731E-09  1.17547E-13  5.64648E-13
  1.125E+01  9.60736E-03  9.72646E-09  8.62242E-09  1.15018E-13  5.76094E-13
  1.150E+01  1.00376E-02  9.61764E-09  8.59704E-09  1.12202E-13  5.87451E-13
  1.175E+01  1.04773E-02  9.50775E-09  8.57119E-09  1.09098E-13  5.98716E-13
  1.200E+01  1.09262E-02  9.39686E-09  8.54485E-09  1.05706E-13  6.09889E-13
  1.225E+01  1.13844E-02  9.28504E-09  8.51805E-09  1.02026E-13  6.20967E-13
  1.250E+01  1.18520E-02  9.17233E-09  8.49078E-09  9.80581E-14  6.31949E-13
  1.275E+01  1.23288E-02  9.05882E-09  8.46305E-09  9.38030E-14  6.42834E-13
  1.300E+01  1.28150E-02  8.94455E-09  8.43486E-09  8.92613E-14  6.53621E-13
  1.325E+01  1.33104E-02  8.82959E-09  8.40622E-09  8.44339E-14  6.64307E-13
  1.350E+01  1.38150E-02  8.71399E-09  8.37714E-09  7.93220E-14  6.74892E-13
  1.375E+01  1.43290E-02  8.59782E-09  8.34761E-09  7.39268E-14  6.85373E-13
  1.400E+01  1.48521E-02  8.48112E-09  8.31765E-09  6.82498E-14  6.95751E-13
  1.425E+01  1.53845E-02  8.36396E-09  8.28725E-09  6.22927E-14  7.06022E-13
  1.450E+01  1.59262E-02  8.24639E-09  8.25643E-09  5.60575E-14  7.16187E-13
  1.475E+01  1.64770E-02  8.12846E-09  8.22520E-09  4.95461E-14  7.26244E-13
  1.500E+01  1.70371E-02  8.01023E-09  8.19354E-09  4.27607E-14  7.36191E-13
