 #  Scattering field.
 #  All quantities in atomic units (a.u.), unless otherwise indicated.
 #  Z =   8, NELEC =   8,   projectile: electron
 #  Kinetic energy = 3.23394E+00 a.u. = 8.80000E+01 eV
 #
 #   i       r           r*V         r*Vst        r*Vex       r*Vpol       r*Wabs        rho_e
 #------------------------------------------------------------------------------------------------
     1  0.00000E+00 -8.00000E+00 -8.00000E+00  0.00000E+00  0.00000E+00  0.00000E+00  3.21574E+02
     2  2.81877E-08 -8.00000E+00 -8.00000E+00 -1.00336E-13  0.00000E+00  0.00000E+00  3.21574E+02
     3  5.71700E-08 -8.00000E+00 -8.00000E+00 -4.12733E-13  0.00000E+00  0.00000E+00  3.21568E+02
     4  8.69693E-08 -8.00000E+00 -8.00000E+00 -9.55118E-13  0.00000E+00  0.00000E+00  3.21563E+02
     5  1.17608E-07 -8.00000E+00 -8.00000E+00 -1.74661E-12  0.00000E+00  0.00000E+00  3.21557E+02
     6  1.49111E-07 -8.00000E+00 -8.00000E+00 -2.80758E-12  0.00000E+00  0.00000E+00  3.21551E+02
     7  1.81502E-07 -8.00000E+00 -8.00000E+00 -4.15974E-12  0.00000E+00  0.00000E+00  3.21545E+02
     8  2.14806E-07 -8.00000E+00 -8.00000E+00 -5.82623E-12  0.00000E+00  0.00000E+00  3.21539E+02
     9  2.49049E-07 -7.99999E+00 -7.99999E+00 -7.83168E-12  0.00000E+00  0.00000E+00  3.21533E+02
    10  2.84257E-07 -7.99999E+00 -7.99999E+00 -1.02023E-11  0.00000E+00  0.00000E+00  3.21527E+02
    11  3.20457E-07 -7.99999E+00 -7.99999E+00 -1.29661E-11  0.00000E+00  0.00000E+00  3.21520E+02
    12  3.57678E-07 -7.99999E+00 -7.99999E+00 -1.61526E-11  0.00000E+00  0.00000E+00  3.21513E+02
    13  3.95948E-07 -7.99999E+00 -7.99999E+00 -1.97936E-11  0.00000E+00  0.00000E+00  3.21506E+02
    14  4.35296E-07 -7.99999E+00 -7.99999E+00 -2.39227E-11  0.00000E+00  0.00000E+00  3.21499E+02
    15  4.75754E-07 -7.99999E+00 -7.99999E+00 -2.85756E-11  0.00000E+00  0.00000E+00  3.21492E+02
    16  5.17352E-07 -7.99999E+00 -7.99999E+00 -3.37904E-11  0.00000E+00  0.00000E+00  3.21484E+02
    17  5.60123E-07 -7.99999E+00 -7.99999E+00 -3.96075E-11  0.00000E+00  0.00000E+00  3.21477E+02
    18  6.04100E-07 -7.99999E+00 -7.99999E+00 -4.60698E-11  0.00000E+00  0.00000E+00  3.21469E+02
    19  6.49316E-07 -7.99999E+00 -7.99999E+00 -5.32231E-11  0.00000E+00  0.00000E+00  3.21461E+02
    20  6.95806E-07 -7.99998E+00 -7.99998E+00 -6.11159E-11  0.00000E+00  0.00000E+00  3.21453E+02
    21  7.43607E-07 -7.99998E+00 -7.99998E+00 -6.97997E-11  0.00000E+00  0.00000E+00  3.21444E+02
    22  7.92755E-07 -7.99998E+00 -7.99998E+00 -7.93292E-11  0.00000E+00  0.00000E+00  3.21436E+02
    23  8.43289E-07 -7.99998E+00 -7.99998E+00 -8.97627E-11  0.00000E+00  0.00000E+00  3.21427E+02
    24  8.95247E-07 -7.99998E+00 -7.99998E+00 -1.01162E-10  0.00000E+00  0.00000E+00  3.21418E+02
    25  9.48670E-07 -7.99998E+00 -7.99998E+00 -1.13592E-10  0.00000E+00  0.00000E+00  3.21409E+02
    26  1.00360E-06 -7.99998E+00 -7.99998E+00 -1.27124E-10  0.00000E+00  0.00000E+00  3.21399E+02
    27  1.06008E-06 -7.99998E+00 -7.99998E+00 -1.41829E-10  0.00000E+00  0.00000E+00  3.21389E+02
    28  1.11814E-06 -7.99998E+00 -7.99998E+00 -1.57789E-10  0.00000E+00  0.00000E+00  3.21380E+02
    29  1.17785E-06 -7.99997E+00 -7.99997E+00 -1.75084E-10  0.00000E+00  0.00000E+00  3.21369E+02
    30  1.23924E-06 -7.99997E+00 -7.99997E+00 -1.93804E-10  0.00000E+00  0.00000E+00  3.21359E+02
    31  1.30236E-06 -7.99997E+00 -7.99997E+00 -2.14042E-10  0.00000E+00  0.00000E+00  3.21348E+02
    32  1.36726E-06 -7.99997E+00 -7.99997E+00 -2.35897E-10  0.00000E+00  0.00000E+00  3.21338E+02
    33  1.43398E-06 -7.99997E+00 -7.99997E+00 -2.59476E-10  0.00000E+00  0.00000E+00  3.21326E+02
    34  1.50259E-06 -7.99997E+00 -7.99997E+00 -2.84889E-10  0.00000E+00  0.00000E+00  3.21315E+02
    35  1.57314E-06 -7.99996E+00 -7.99996E+00 -3.12255E-10  0.00000E+00  0.00000E+00  3.21304E+02
    36  1.64567E-06 -7.99996E+00 -7.99996E+00 -3.41700E-10  0.00000E+00  0.00000E+00  3.21292E+02
    37  1.72024E-06 -7.99996E+00 -7.99996E+00 -3.73357E-10  0.00000E+00  0.00000E+00  3.21280E+02
    38  1.79692E-06 -7.99996E+00 -7.99996E+00 -4.07367E-10  0.00000E+00  0.00000E+00  3.21267E+02
    39  1.87576E-06 -7.99996E+00 -7.99996E+00 -4.43879E-10  0.00000E+00  0.00000E+00  3.21255E+02
    40  1.95682E-06 -7.99996E+00 -7.99996E+00 -4.83054E-10  0.00000E+00  0.00000E+00  3.21242E+02
    41  2.04017E-06 -7.99995E+00 -7.99995E+00 -5.25058E-10  0.00000E+00  0.00000E+00  3.21228E+02
    42  2.12586E-06 -7.99995E+00 -7.99995E+00 -5.70069E-10  0.00000E+00  0.00000E+00  3.21215E+02
    43  2.21397E-06 -7.99995E+00 -7.99995E+00 -6.18278E-10  0.00000E+00  0.00000E+00  3.21201E+02
    44  2.30457E-06 -7.99995E+00 -7.99995E+00 -6.69883E-10  0.00000E+00  0.00000E+00  3.21187E+02
    45  2.39772E-06 -7.99995E+00 -7.99995E+00 -7.25098E-10  0.00000E+00  0.00000E+00  3.21173E+02
    46  2.49349E-06 -7.99994E+00 -7.99994E+00 -7.84146E-10  0.00000E+00  0.00000E+00  3.21158E+02
    47  2.59196E-06 -7.99994E+00 -7.99994E+00 -8.47265E-10  0.00000E+00  0.00000E+00  3.21144E+02
    48  2.69321E-06 -7.99994E+00 -7.99994E+00 -9.14708E-10  0.00000E+00  0.00000E+00  3.21128E+02
    49  2.79732E-06 -7.99994E+00 -7.99994E+00 -9.86742E-10  0.00000E+00  0.00000E+00  3.21113E+02
    50  2.90435E-06 -7.99994E+00 -7.99994E+00 -1.06365E-09  0.00000E+00  0.00000E+00  3.21097E+02
    51  3.01441E-06 -7.99993E+00 -7.99993E+00 -1.14573E-09  0.00000E+00  0.00000E+00  3.21081E+02
    52  3.12757E-06 -7.99993E+00 -7.99993E+00 -1.23330E-09  0.00000E+00  0.00000E+00  3.21065E+02
    53  3.24391E-06 -7.99993E+00 -7.99993E+00 -1.32670E-09  0.00000E+00  0.00000E+00  3.21048E+02
    54  3.36354E-06 -7.99993E+00 -7.99993E+00 -1.42628E-09  0.00000E+00  0.00000E+00  3.21032E+02
    55  3.48654E-06 -7.99992E+00 -7.99992E+00 -1.53242E-09  0.00000E+00  0.00000E+00  3.21014E+02
    56  3.61300E-06 -7.99992E+00 -7.99992E+00 -1.64551E-09  0.00000E+00  0.00000E+00  3.20997E+02
    57  3.74303E-06 -7.99992E+00 -7.99992E+00 -1.76599E-09  0.00000E+00  0.00000E+00  3.20979E+02
    58  3.87673E-06 -7.99991E+00 -7.99991E+00 -1.89429E-09  0.00000E+00  0.00000E+00  3.20961E+02
    59  4.01419E-06 -7.99991E+00 -7.99991E+00 -2.03090E-09  0.00000E+00  0.00000E+00  3.20943E+02
    60  4.15553E-06 -7.99991E+00 -7.99991E+00 -2.17631E-09  0.00000E+00  0.00000E+00  3.20924E+02
    61  4.30085E-06 -7.99990E+00 -7.99990E+00 -2.33105E-09  0.00000E+00  0.00000E+00  3.20906E+02
    62  4.45027E-06 -7.99990E+00 -7.99990E+00 -2.49568E-09  0.00000E+00  0.00000E+00  3.20887E+02
    63  4.60390E-06 -7.99990E+00 -7.99990E+00 -2.67081E-09  0.00000E+00  0.00000E+00  3.20867E+02
    64  4.76187E-06 -7.99989E+00 -7.99989E+00 -2.85705E-09  0.00000E+00  0.00000E+00  3.20848E+02
    65  4.92428E-06 -7.99989E+00 -7.99989E+00 -3.05508E-09  0.00000E+00  0.00000E+00  3.20828E+02
    66  5.09127E-06 -7.99989E+00 -7.99989E+00 -3.26560E-09  0.00000E+00  0.00000E+00  3.20808E+02
    67  5.26297E-06 -7.99988E+00 -7.99988E+00 -3.48935E-09  0.00000E+00  0.00000E+00  3.20787E+02
    68  5.43951E-06 -7.99988E+00 -7.99988E+00 -3.72713E-09  0.00000E+00  0.00000E+00  3.20767E+02
    69  5.62103E-06 -7.99987E+00 -7.99987E+00 -3.97977E-09  0.00000E+00  0.00000E+00  3.20746E+02
    70  5.80766E-06 -7.99987E+00 -7.99987E+00 -4.24816E-09  0.00000E+00  0.00000E+00  3.20725E+02
    71  5.99955E-06 -7.99987E+00 -7.99987E+00 -4.53324E-09  0.00000E+00  0.00000E+00  3.20704E+02
    72  6.19685E-06 -7.99986E+00 -7.99986E+00 -4.83598E-09  0.00000E+00  0.00000E+00  3.20683E+02
    73  6.39972E-06 -7.99986E+00 -7.99986E+00 -5.15745E-09  0.00000E+00  0.00000E+00  3.20662E+02
    74  6.60830E-06 -7.99985E+00 -7.99985E+00 -5.49874E-09  0.00000E+00  0.00000E+00  3.20640E+02
    75  6.82276E-06 -7.99985E+00 -7.99985E+00 -5.86105E-09  0.00000E+00  0.00000E+00  3.20618E+02
    76  7.04326E-06 -7.99984E+00 -7.99984E+00 -6.24560E-09  0.00000E+00  0.00000E+00  3.20597E+02
    77  7.26998E-06 -7.99984E+00 -7.99984E+00 -6.65371E-09  0.00000E+00  0.00000E+00  3.20575E+02
    78  7.50310E-06 -7.99983E+00 -7.99983E+00 -7.08677E-09  0.00000E+00  0.00000E+00  3.20553E+02
    79  7.74278E-06 -7.99983E+00 -7.99983E+00 -7.54626E-09  0.00000E+00  0.00000E+00  3.20531E+02
    80  7.98922E-06 -7.99982E+00 -7.99982E+00 -8.03372E-09  0.00000E+00  0.00000E+00  3.20509E+02
    81  8.24261E-06 -7.99982E+00 -7.99982E+00 -8.55082E-09  0.00000E+00  0.00000E+00  3.20487E+02
    82  8.50313E-06 -7.99981E+00 -7.99981E+00 -9.09928E-09  0.00000E+00  0.00000E+00  3.20465E+02
    83  8.77101E-06 -7.99980E+00 -7.99980E+00 -9.68096E-09  0.00000E+00  0.00000E+00  3.20443E+02
    84  9.04643E-06 -7.99980E+00 -7.99980E+00 -1.02978E-08  0.00000E+00  0.00000E+00  3.20421E+02
    85  9.32961E-06 -7.99979E+00 -7.99979E+00 -1.09519E-08  0.00000E+00  0.00000E+00  3.20399E+02
    86  9.62078E-06 -7.99979E+00 -7.99979E+00 -1.16454E-08  0.00000E+00  0.00000E+00  3.20378E+02
    87  9.92016E-06 -7.99978E+00 -7.99978E+00 -1.23806E-08  0.00000E+00  0.00000E+00  3.20357E+02
    88  1.02280E-05 -7.99977E+00 -7.99977E+00 -1.31600E-08  0.00000E+00  0.00000E+00  3.20335E+02
    89  1.05445E-05 -7.99977E+00 -7.99977E+00 -1.39861E-08  0.00000E+00  0.00000E+00  3.20314E+02
    90  1.08699E-05 -7.99976E+00 -7.99976E+00 -1.48617E-08  0.00000E+00  0.00000E+00  3.20294E+02
    91  1.12045E-05 -7.99975E+00 -7.99975E+00 -1.57897E-08  0.00000E+00  0.00000E+00  3.20273E+02
    92  1.15485E-05 -7.99974E+00 -7.99974E+00 -1.67732E-08  0.00000E+00  0.00000E+00  3.20253E+02
    93  1.19022E-05 -7.99973E+00 -7.99973E+00 -1.78153E-08  0.00000E+00  0.00000E+00  3.20234E+02
    94  1.22659E-05 -7.99973E+00 -7.99973E+00 -1.89196E-08  0.00000E+00  0.00000E+00  3.20215E+02
    95  1.26398E-05 -7.99972E+00 -7.99972E+00 -2.00895E-08  0.00000E+00  0.00000E+00  3.20196E+02
    96  1.30243E-05 -7.99971E+00 -7.99971E+00 -2.13291E-08  0.00000E+00  0.00000E+00  3.20178E+02
    97  1.34196E-05 -7.99970E+00 -7.99970E+00 -2.26423E-08  0.00000E+00  0.00000E+00  3.20160E+02
    98  1.38261E-05 -7.99969E+00 -7.99969E+00 -2.40334E-08  0.00000E+00  0.00000E+00  3.20143E+02
    99  1.42440E-05 -7.99968E+00 -7.99968E+00 -2.55069E-08  0.00000E+00  0.00000E+00  3.20126E+02
   100  1.46737E-05 -7.99967E+00 -7.99967E+00 -2.70677E-08  0.00000E+00  0.00000E+00  3.20111E+02
   101  1.51155E-05 -7.99966E+00 -7.99966E+00 -2.87209E-08  0.00000E+00  0.00000E+00  3.20095E+02
   102  1.55697E-05 -7.99965E+00 -7.99965E+00 -3.04717E-08  0.00000E+00  0.00000E+00  3.20081E+02
   103  1.60368E-05 -7.99964E+00 -7.99964E+00 -3.23260E-08  0.00000E+00  0.00000E+00  3.20067E+02
   104  1.65170E-05 -7.99963E+00 -7.99963E+00 -3.42897E-08  0.00000E+00  0.00000E+00  3.20054E+02
   105  1.70108E-05 -7.99962E+00 -7.99962E+00 -3.63691E-08  0.00000E+00  0.00000E+00  3.20042E+02
   106  1.75185E-05 -7.99961E+00 -7.99961E+00 -3.85710E-08  0.00000E+00  0.00000E+00  3.20030E+02
   107  1.80405E-05 -7.99960E+00 -7.99960E+00 -4.09025E-08  0.00000E+00  0.00000E+00  3.20020E+02
   108  1.85772E-05 -7.99959E+00 -7.99959E+00 -4.33711E-08  0.00000E+00  0.00000E+00  3.20010E+02
   109  1.91290E-05 -7.99957E+00 -7.99957E+00 -4.59848E-08  0.00000E+00  0.00000E+00  3.20000E+02
   110  1.96964E-05 -7.99956E+00 -7.99956E+00 -4.87520E-08  0.00000E+00  0.00000E+00  3.19992E+02
   111  2.02798E-05 -7.99955E+00 -7.99955E+00 -5.16815E-08  0.00000E+00  0.00000E+00  3.19984E+02
   112  2.08796E-05 -7.99953E+00 -7.99953E+00 -5.47829E-08  0.00000E+00  0.00000E+00  3.19977E+02
   113  2.14963E-05 -7.99952E+00 -7.99952E+00 -5.80659E-08  0.00000E+00  0.00000E+00  3.19971E+02
   114  2.21305E-05 -7.99951E+00 -7.99951E+00 -6.15411E-08  0.00000E+00  0.00000E+00  3.19964E+02
   115  2.27824E-05 -7.99949E+00 -7.99949E+00 -6.52196E-08  0.00000E+00  0.00000E+00  3.19959E+02
   116  2.34528E-05 -7.99948E+00 -7.99948E+00 -6.91132E-08  0.00000E+00  0.00000E+00  3.19953E+02
   117  2.41421E-05 -7.99946E+00 -7.99946E+00 -7.32342E-08  0.00000E+00  0.00000E+00  3.19948E+02
   118  2.48508E-05 -7.99945E+00 -7.99945E+00 -7.75958E-08  0.00000E+00  0.00000E+00  3.19943E+02
   119  2.55795E-05 -7.99943E+00 -7.99943E+00 -8.22117E-08  0.00000E+00  0.00000E+00  3.19937E+02
   120  2.63287E-05 -7.99941E+00 -7.99941E+00 -8.70967E-08  0.00000E+00  0.00000E+00  3.19931E+02
   121  2.70990E-05 -7.99940E+00 -7.99940E+00 -9.22662E-08  0.00000E+00  0.00000E+00  3.19925E+02
   122  2.78911E-05 -7.99938E+00 -7.99938E+00 -9.77366E-08  0.00000E+00  0.00000E+00  3.19918E+02
   123  2.87054E-05 -7.99936E+00 -7.99936E+00 -1.03525E-07  0.00000E+00  0.00000E+00  3.19911E+02
   124  2.95428E-05 -7.99934E+00 -7.99934E+00 -1.09651E-07  0.00000E+00  0.00000E+00  3.19903E+02
   125  3.04037E-05 -7.99932E+00 -7.99932E+00 -1.16132E-07  0.00000E+00  0.00000E+00  3.19896E+02
   126  3.12889E-05 -7.99930E+00 -7.99930E+00 -1.22990E-07  0.00000E+00  0.00000E+00  3.19887E+02
   127  3.21990E-05 -7.99928E+00 -7.99928E+00 -1.30246E-07  0.00000E+00  0.00000E+00  3.19879E+02
   128  3.31348E-05 -7.99926E+00 -7.99926E+00 -1.37923E-07  0.00000E+00  0.00000E+00  3.19870E+02
   129  3.40970E-05 -7.99924E+00 -7.99924E+00 -1.46045E-07  0.00000E+00  0.00000E+00  3.19860E+02
   130  3.50863E-05 -7.99922E+00 -7.99922E+00 -1.54639E-07  0.00000E+00  0.00000E+00  3.19850E+02
   131  3.61035E-05 -7.99920E+00 -7.99920E+00 -1.63730E-07  0.00000E+00  0.00000E+00  3.19839E+02
   132  3.71494E-05 -7.99917E+00 -7.99917E+00 -1.73348E-07  0.00000E+00  0.00000E+00  3.19828E+02
   133  3.82247E-05 -7.99915E+00 -7.99915E+00 -1.83522E-07  0.00000E+00  0.00000E+00  3.19816E+02
   134  3.93304E-05 -7.99912E+00 -7.99912E+00 -1.94285E-07  0.00000E+00  0.00000E+00  3.19804E+02
   135  4.04672E-05 -7.99910E+00 -7.99910E+00 -2.05671E-07  0.00000E+00  0.00000E+00  3.19791E+02
   136  4.16360E-05 -7.99907E+00 -7.99907E+00 -2.17716E-07  0.00000E+00  0.00000E+00  3.19777E+02
   137  4.28379E-05 -7.99905E+00 -7.99905E+00 -2.30456E-07  0.00000E+00  0.00000E+00  3.19763E+02
   138  4.40735E-05 -7.99902E+00 -7.99902E+00 -2.43932E-07  0.00000E+00  0.00000E+00  3.19748E+02
   139  4.53441E-05 -7.99899E+00 -7.99899E+00 -2.58187E-07  0.00000E+00  0.00000E+00  3.19732E+02
   140  4.66504E-05 -7.99896E+00 -7.99896E+00 -2.73264E-07  0.00000E+00  0.00000E+00  3.19716E+02
   141  4.79935E-05 -7.99893E+00 -7.99893E+00 -2.89212E-07  0.00000E+00  0.00000E+00  3.19699E+02
   142  4.93746E-05 -7.99890E+00 -7.99890E+00 -3.06079E-07  0.00000E+00  0.00000E+00  3.19681E+02
   143  5.07945E-05 -7.99887E+00 -7.99887E+00 -3.23919E-07  0.00000E+00  0.00000E+00  3.19662E+02
   144  5.22545E-05 -7.99884E+00 -7.99884E+00 -3.42788E-07  0.00000E+00  0.00000E+00  3.19643E+02
   145  5.37556E-05 -7.99880E+00 -7.99880E+00 -3.62743E-07  0.00000E+00  0.00000E+00  3.19622E+02
   146  5.52990E-05 -7.99877E+00 -7.99877E+00 -3.83848E-07  0.00000E+00  0.00000E+00  3.19601E+02
   147  5.68859E-05 -7.99873E+00 -7.99873E+00 -4.06169E-07  0.00000E+00  0.00000E+00  3.19579E+02
   148  5.85176E-05 -7.99870E+00 -7.99870E+00 -4.29774E-07  0.00000E+00  0.00000E+00  3.19556E+02
   149  6.01953E-05 -7.99866E+00 -7.99866E+00 -4.54738E-07  0.00000E+00  0.00000E+00  3.19532E+02
   150  6.19202E-05 -7.99862E+00 -7.99862E+00 -4.81138E-07  0.00000E+00  0.00000E+00  3.19507E+02
   151  6.36938E-05 -7.99858E+00 -7.99858E+00 -5.09056E-07  0.00000E+00  0.00000E+00  3.19481E+02
   152  6.55174E-05 -7.99854E+00 -7.99854E+00 -5.38579E-07  0.00000E+00  0.00000E+00  3.19455E+02
   153  6.73923E-05 -7.99850E+00 -7.99850E+00 -5.69800E-07  0.00000E+00  0.00000E+00  3.19427E+02
   154  6.93201E-05 -7.99846E+00 -7.99846E+00 -6.02815E-07  0.00000E+00  0.00000E+00  3.19399E+02
   155  7.13023E-05 -7.99841E+00 -7.99841E+00 -6.37727E-07  0.00000E+00  0.00000E+00  3.19370E+02
   156  7.33403E-05 -7.99837E+00 -7.99837E+00 -6.74644E-07  0.00000E+00  0.00000E+00  3.19340E+02
   157  7.54358E-05 -7.99832E+00 -7.99832E+00 -7.13681E-07  0.00000E+00  0.00000E+00  3.19309E+02
   158  7.75903E-05 -7.99827E+00 -7.99827E+00 -7.54960E-07  0.00000E+00  0.00000E+00  3.19278E+02
   159  7.98056E-05 -7.99822E+00 -7.99822E+00 -7.98608E-07  0.00000E+00  0.00000E+00  3.19246E+02
   160  8.20833E-05 -7.99817E+00 -7.99817E+00 -8.44762E-07  0.00000E+00  0.00000E+00  3.19212E+02
   161  8.44252E-05 -7.99812E+00 -7.99812E+00 -8.93563E-07  0.00000E+00  0.00000E+00  3.19179E+02
   162  8.68331E-05 -7.99807E+00 -7.99807E+00 -9.45165E-07  0.00000E+00  0.00000E+00  3.19144E+02
   163  8.93089E-05 -7.99801E+00 -7.99801E+00 -9.99726E-07  0.00000E+00  0.00000E+00  3.19109E+02
   164  9.18545E-05 -7.99795E+00 -7.99795E+00 -1.05742E-06  0.00000E+00  0.00000E+00  3.19073E+02
   165  9.44719E-05 -7.99790E+00 -7.99790E+00 -1.11841E-06  0.00000E+00  0.00000E+00  3.19036E+02
   166  9.71630E-05 -7.99784E+00 -7.99784E+00 -1.18291E-06  0.00000E+00  0.00000E+00  3.18999E+02
   167  9.99300E-05 -7.99778E+00 -7.99777E+00 -1.25110E-06  0.00000E+00  0.00000E+00  3.18961E+02
   168  1.02775E-04 -7.99771E+00 -7.99771E+00 -1.32320E-06  0.00000E+00  0.00000E+00  3.18922E+02
   169  1.05700E-04 -7.99765E+00 -7.99765E+00 -1.39943E-06  0.00000E+00  0.00000E+00  3.18882E+02
   170  1.08708E-04 -7.99758E+00 -7.99758E+00 -1.48002E-06  0.00000E+00  0.00000E+00  3.18842E+02
   171  1.11800E-04 -7.99751E+00 -7.99751E+00 -1.56523E-06  0.00000E+00  0.00000E+00  3.18801E+02
   172  1.14980E-04 -7.99744E+00 -7.99744E+00 -1.65533E-06  0.00000E+00  0.00000E+00  3.18760E+02
   173  1.18249E-04 -7.99737E+00 -7.99737E+00 -1.75058E-06  0.00000E+00  0.00000E+00  3.18717E+02
   174  1.21610E-04 -7.99729E+00 -7.99729E+00 -1.85128E-06  0.00000E+00  0.00000E+00  3.18674E+02
   175  1.25066E-04 -7.99722E+00 -7.99721E+00 -1.95775E-06  0.00000E+00  0.00000E+00  3.18631E+02
   176  1.28620E-04 -7.99714E+00 -7.99713E+00 -2.07031E-06  0.00000E+00  0.00000E+00  3.18586E+02
   177  1.32273E-04 -7.99706E+00 -7.99705E+00 -2.18931E-06  0.00000E+00  0.00000E+00  3.18541E+02
   178  1.36030E-04 -7.99697E+00 -7.99697E+00 -2.31512E-06  0.00000E+00  0.00000E+00  3.18496E+02
   179  1.39892E-04 -7.99689E+00 -7.99688E+00 -2.44812E-06  0.00000E+00  0.00000E+00  3.18449E+02
   180  1.43864E-04 -7.99680E+00 -7.99680E+00 -2.58874E-06  0.00000E+00  0.00000E+00  3.18402E+02
   181  1.47947E-04 -7.99671E+00 -7.99670E+00 -2.73739E-06  0.00000E+00  0.00000E+00  3.18354E+02
   182  1.52146E-04 -7.99661E+00 -7.99661E+00 -2.89454E-06  0.00000E+00  0.00000E+00  3.18306E+02
   183  1.56462E-04 -7.99652E+00 -7.99651E+00 -3.06068E-06  0.00000E+00  0.00000E+00  3.18256E+02
   184  1.60901E-04 -7.99642E+00 -7.99642E+00 -3.23632E-06  0.00000E+00  0.00000E+00  3.18206E+02
   185  1.65464E-04 -7.99632E+00 -7.99631E+00 -3.42199E-06  0.00000E+00  0.00000E+00  3.18155E+02
   186  1.70157E-04 -7.99621E+00 -7.99621E+00 -3.61828E-06  0.00000E+00  0.00000E+00  3.18104E+02
   187  1.74981E-04 -7.99611E+00 -7.99610E+00 -3.82578E-06  0.00000E+00  0.00000E+00  3.18051E+02
   188  1.79941E-04 -7.99600E+00 -7.99599E+00 -4.04513E-06  0.00000E+00  0.00000E+00  3.17998E+02
   189  1.85042E-04 -7.99588E+00 -7.99588E+00 -4.27702E-06  0.00000E+00  0.00000E+00  3.17944E+02
   190  1.90286E-04 -7.99577E+00 -7.99576E+00 -4.52215E-06  0.00000E+00  0.00000E+00  3.17889E+02
   191  1.95678E-04 -7.99565E+00 -7.99564E+00 -4.78127E-06  0.00000E+00  0.00000E+00  3.17834E+02
   192  2.01221E-04 -7.99552E+00 -7.99552E+00 -5.05520E-06  0.00000E+00  0.00000E+00  3.17777E+02
   193  2.06921E-04 -7.99540E+00 -7.99539E+00 -5.34476E-06  0.00000E+00  0.00000E+00  3.17720E+02
   194  2.12782E-04 -7.99527E+00 -7.99526E+00 -5.65086E-06  0.00000E+00  0.00000E+00  3.17662E+02
   195  2.18808E-04 -7.99513E+00 -7.99513E+00 -5.97442E-06  0.00000E+00  0.00000E+00  3.17602E+02
   196  2.25004E-04 -7.99499E+00 -7.99499E+00 -6.31645E-06  0.00000E+00  0.00000E+00  3.17542E+02
   197  2.31374E-04 -7.99485E+00 -7.99485E+00 -6.67800E-06  0.00000E+00  0.00000E+00  3.17481E+02
   198  2.37924E-04 -7.99471E+00 -7.99470E+00 -7.06018E-06  0.00000E+00  0.00000E+00  3.17419E+02
   199  2.44659E-04 -7.99456E+00 -7.99455E+00 -7.46416E-06  0.00000E+00  0.00000E+00  3.17356E+02
   200  2.51583E-04 -7.99440E+00 -7.99440E+00 -7.89118E-06  0.00000E+00  0.00000E+00  3.17292E+02
