 #  Scattering field.
 #  All quantities in atomic units (a.u.), unless otherwise indicated.
 #  Z =   1, NELEC =   1,   projectile: electron
 #  Kinetic energy = 3.23394E+00 a.u. = 8.80000E+01 eV
 #
 #   i       r           r*V         r*Vst        r*Vex       r*Vpol       r*Wabs        rho_e
 #------------------------------------------------------------------------------------------------
     1  0.00000E+00 -1.00000E+00 -1.00000E+00  0.00000E+00  0.00000E+00  0.00000E+00  3.18847E-01
     2  2.81877E-08 -1.00000E+00 -1.00000E+00 -7.95886E-16  0.00000E+00  0.00000E+00  3.18847E-01
     3  5.71700E-08 -1.00000E+00 -1.00000E+00 -3.27388E-15  0.00000E+00  0.00000E+00  3.18843E-01
     4  8.69693E-08 -1.00000E+00 -1.00000E+00 -7.57621E-15  0.00000E+00  0.00000E+00  3.18838E-01
     5  1.17608E-07 -1.00000E+00 -1.00000E+00 -1.38545E-14  0.00000E+00  0.00000E+00  3.18834E-01
     6  1.49111E-07 -1.00000E+00 -1.00000E+00 -2.22705E-14  0.00000E+00  0.00000E+00  3.18829E-01
     7  1.81502E-07 -1.00000E+00 -1.00000E+00 -3.29963E-14  0.00000E+00  0.00000E+00  3.18825E-01
     8  2.14806E-07 -1.00000E+00 -1.00000E+00 -4.62156E-14  0.00000E+00  0.00000E+00  3.18820E-01
     9  2.49049E-07 -1.00000E+00 -1.00000E+00 -6.21238E-14  0.00000E+00  0.00000E+00  3.18815E-01
    10  2.84257E-07 -1.00000E+00 -1.00000E+00 -8.09289E-14  0.00000E+00  0.00000E+00  3.18810E-01
    11  3.20457E-07 -1.00000E+00 -1.00000E+00 -1.02852E-13  0.00000E+00  0.00000E+00  3.18805E-01
    12  3.57678E-07 -1.00000E+00 -1.00000E+00 -1.28130E-13  0.00000E+00  0.00000E+00  3.18800E-01
    13  3.95948E-07 -1.00000E+00 -1.00000E+00 -1.57013E-13  0.00000E+00  0.00000E+00  3.18795E-01
    14  4.35296E-07 -1.00000E+00 -1.00000E+00 -1.89768E-13  0.00000E+00  0.00000E+00  3.18790E-01
    15  4.75754E-07 -1.00000E+00 -1.00000E+00 -2.26679E-13  0.00000E+00  0.00000E+00  3.18784E-01
    16  5.17352E-07 -9.99999E-01 -9.99999E-01 -2.68048E-13  0.00000E+00  0.00000E+00  3.18779E-01
    17  5.60123E-07 -9.99999E-01 -9.99999E-01 -3.14195E-13  0.00000E+00  0.00000E+00  3.18774E-01
    18  6.04100E-07 -9.99999E-01 -9.99999E-01 -3.65461E-13  0.00000E+00  0.00000E+00  3.18768E-01
    19  6.49316E-07 -9.99999E-01 -9.99999E-01 -4.22209E-13  0.00000E+00  0.00000E+00  3.18762E-01
    20  6.95806E-07 -9.99999E-01 -9.99999E-01 -4.84825E-13  0.00000E+00  0.00000E+00  3.18757E-01
    21  7.43607E-07 -9.99999E-01 -9.99999E-01 -5.53717E-13  0.00000E+00  0.00000E+00  3.18751E-01
    22  7.92755E-07 -9.99999E-01 -9.99999E-01 -6.29319E-13  0.00000E+00  0.00000E+00  3.18745E-01
    23  8.43289E-07 -9.99999E-01 -9.99999E-01 -7.12094E-13  0.00000E+00  0.00000E+00  3.18739E-01
    24  8.95247E-07 -9.99999E-01 -9.99999E-01 -8.02532E-13  0.00000E+00  0.00000E+00  3.18733E-01
    25  9.48670E-07 -9.99999E-01 -9.99999E-01 -9.01152E-13  0.00000E+00  0.00000E+00  3.18727E-01
    26  1.00360E-06 -9.99999E-01 -9.99999E-01 -1.00851E-12  0.00000E+00  0.00000E+00  3.18721E-01
    27  1.06008E-06 -9.99999E-01 -9.99999E-01 -1.12519E-12  0.00000E+00  0.00000E+00  3.18714E-01
    28  1.11814E-06 -9.99999E-01 -9.99999E-01 -1.25181E-12  0.00000E+00  0.00000E+00  3.18708E-01
    29  1.17785E-06 -9.99999E-01 -9.99999E-01 -1.38904E-12  0.00000E+00  0.00000E+00  3.18702E-01
    30  1.23924E-06 -9.99999E-01 -9.99999E-01 -1.53757E-12  0.00000E+00  0.00000E+00  3.18695E-01
    31  1.30236E-06 -9.99999E-01 -9.99999E-01 -1.69815E-12  0.00000E+00  0.00000E+00  3.18689E-01
    32  1.36726E-06 -9.99999E-01 -9.99999E-01 -1.87157E-12  0.00000E+00  0.00000E+00  3.18683E-01
    33  1.43398E-06 -9.99999E-01 -9.99999E-01 -2.05867E-12  0.00000E+00  0.00000E+00  3.18676E-01
    34  1.50259E-06 -9.99998E-01 -9.99998E-01 -2.26033E-12  0.00000E+00  0.00000E+00  3.18670E-01
    35  1.57314E-06 -9.99998E-01 -9.99998E-01 -2.47749E-12  0.00000E+00  0.00000E+00  3.18663E-01
    36  1.64567E-06 -9.99998E-01 -9.99998E-01 -2.71116E-12  0.00000E+00  0.00000E+00  3.18656E-01
    37  1.72024E-06 -9.99998E-01 -9.99998E-01 -2.96238E-12  0.00000E+00  0.00000E+00  3.18650E-01
    38  1.79692E-06 -9.99998E-01 -9.99998E-01 -3.23229E-12  0.00000E+00  0.00000E+00  3.18643E-01
    39  1.87576E-06 -9.99998E-01 -9.99998E-01 -3.52207E-12  0.00000E+00  0.00000E+00  3.18637E-01
    40  1.95682E-06 -9.99998E-01 -9.99998E-01 -3.83298E-12  0.00000E+00  0.00000E+00  3.18630E-01
    41  2.04017E-06 -9.99998E-01 -9.99998E-01 -4.16636E-12  0.00000E+00  0.00000E+00  3.18624E-01
    42  2.12586E-06 -9.99998E-01 -9.99998E-01 -4.52363E-12  0.00000E+00  0.00000E+00  3.18617E-01
    43  2.21397E-06 -9.99998E-01 -9.99998E-01 -4.90628E-12  0.00000E+00  0.00000E+00  3.18611E-01
    44  2.30457E-06 -9.99998E-01 -9.99998E-01 -5.31591E-12  0.00000E+00  0.00000E+00  3.18604E-01
    45  2.39772E-06 -9.99998E-01 -9.99998E-01 -5.75421E-12  0.00000E+00  0.00000E+00  3.18598E-01
    46  2.49349E-06 -9.99998E-01 -9.99998E-01 -6.22296E-12  0.00000E+00  0.00000E+00  3.18592E-01
    47  2.59196E-06 -9.99997E-01 -9.99997E-01 -6.72405E-12  0.00000E+00  0.00000E+00  3.18586E-01
    48  2.69321E-06 -9.99997E-01 -9.99997E-01 -7.25949E-12  0.00000E+00  0.00000E+00  3.18579E-01
    49  2.79732E-06 -9.99997E-01 -9.99997E-01 -7.83141E-12  0.00000E+00  0.00000E+00  3.18573E-01
    50  2.90435E-06 -9.99997E-01 -9.99997E-01 -8.44204E-12  0.00000E+00  0.00000E+00  3.18568E-01
    51  3.01441E-06 -9.99997E-01 -9.99997E-01 -9.09379E-12  0.00000E+00  0.00000E+00  3.18562E-01
    52  3.12757E-06 -9.99997E-01 -9.99997E-01 -9.78917E-12  0.00000E+00  0.00000E+00  3.18556E-01
    53  3.24391E-06 -9.99997E-01 -9.99997E-01 -1.05309E-11  0.00000E+00  0.00000E+00  3.18551E-01
    54  3.36354E-06 -9.99997E-01 -9.99997E-01 -1.13217E-11  0.00000E+00  0.00000E+00  3.18546E-01
    55  3.48654E-06 -9.99997E-01 -9.99997E-01 -1.21647E-11  0.00000E+00  0.00000E+00  3.18540E-01
    56  3.61300E-06 -9.99996E-01 -9.99996E-01 -1.30629E-11  0.00000E+00  0.00000E+00  3.18536E-01
    57  3.74303E-06 -9.99996E-01 -9.99996E-01 -1.40199E-11  0.00000E+00  0.00000E+00  3.18531E-01
    58  3.87673E-06 -9.99996E-01 -9.99996E-01 -1.50391E-11  0.00000E+00  0.00000E+00  3.18526E-01
    59  4.01419E-06 -9.99996E-01 -9.99996E-01 -1.61243E-11  0.00000E+00  0.00000E+00  3.18522E-01
    60  4.15553E-06 -9.99996E-01 -9.99996E-01 -1.72796E-11  0.00000E+00  0.00000E+00  3.18518E-01
    61  4.30085E-06 -9.99996E-01 -9.99996E-01 -1.85091E-11  0.00000E+00  0.00000E+00  3.18514E-01
    62  4.45027E-06 -9.99996E-01 -9.99996E-01 -1.98172E-11  0.00000E+00  0.00000E+00  3.18511E-01
    63  4.60390E-06 -9.99995E-01 -9.99995E-01 -2.12089E-11  0.00000E+00  0.00000E+00  3.18508E-01
    64  4.76187E-06 -9.99995E-01 -9.99995E-01 -2.26890E-11  0.00000E+00  0.00000E+00  3.18505E-01
    65  4.92428E-06 -9.99995E-01 -9.99995E-01 -2.42629E-11  0.00000E+00  0.00000E+00  3.18502E-01
    66  5.09127E-06 -9.99995E-01 -9.99995E-01 -2.59362E-11  0.00000E+00  0.00000E+00  3.18500E-01
    67  5.26297E-06 -9.99995E-01 -9.99995E-01 -2.77149E-11  0.00000E+00  0.00000E+00  3.18498E-01
    68  5.43951E-06 -9.99995E-01 -9.99995E-01 -2.96052E-11  0.00000E+00  0.00000E+00  3.18496E-01
    69  5.62103E-06 -9.99994E-01 -9.99994E-01 -3.16139E-11  0.00000E+00  0.00000E+00  3.18494E-01
    70  5.80766E-06 -9.99994E-01 -9.99994E-01 -3.37479E-11  0.00000E+00  0.00000E+00  3.18493E-01
    71  5.99955E-06 -9.99994E-01 -9.99994E-01 -3.60147E-11  0.00000E+00  0.00000E+00  3.18492E-01
    72  6.19685E-06 -9.99994E-01 -9.99994E-01 -3.84223E-11  0.00000E+00  0.00000E+00  3.18491E-01
    73  6.39972E-06 -9.99994E-01 -9.99994E-01 -4.09791E-11  0.00000E+00  0.00000E+00  3.18491E-01
    74  6.60830E-06 -9.99993E-01 -9.99993E-01 -4.36937E-11  0.00000E+00  0.00000E+00  3.18490E-01
    75  6.82276E-06 -9.99993E-01 -9.99993E-01 -4.65757E-11  0.00000E+00  0.00000E+00  3.18490E-01
    76  7.04326E-06 -9.99993E-01 -9.99993E-01 -4.96349E-11  0.00000E+00  0.00000E+00  3.18490E-01
    77  7.26998E-06 -9.99993E-01 -9.99993E-01 -5.28817E-11  0.00000E+00  0.00000E+00  3.18490E-01
    78  7.50310E-06 -9.99992E-01 -9.99992E-01 -5.63274E-11  0.00000E+00  0.00000E+00  3.18490E-01
    79  7.74278E-06 -9.99992E-01 -9.99992E-01 -5.99835E-11  0.00000E+00  0.00000E+00  3.18490E-01
    80  7.98922E-06 -9.99992E-01 -9.99992E-01 -6.38625E-11  0.00000E+00  0.00000E+00  3.18490E-01
    81  8.24261E-06 -9.99992E-01 -9.99992E-01 -6.79776E-11  0.00000E+00  0.00000E+00  3.18489E-01
    82  8.50313E-06 -9.99991E-01 -9.99991E-01 -7.23427E-11  0.00000E+00  0.00000E+00  3.18489E-01
    83  8.77101E-06 -9.99991E-01 -9.99991E-01 -7.69723E-11  0.00000E+00  0.00000E+00  3.18489E-01
    84  9.04643E-06 -9.99991E-01 -9.99991E-01 -8.18822E-11  0.00000E+00  0.00000E+00  3.18489E-01
    85  9.32961E-06 -9.99991E-01 -9.99991E-01 -8.70888E-11  0.00000E+00  0.00000E+00  3.18489E-01
    86  9.62078E-06 -9.99990E-01 -9.99990E-01 -9.26094E-11  0.00000E+00  0.00000E+00  3.18489E-01
    87  9.92016E-06 -9.99990E-01 -9.99990E-01 -9.84625E-11  0.00000E+00  0.00000E+00  3.18488E-01
    88  1.02280E-05 -9.99990E-01 -9.99990E-01 -1.04668E-10  0.00000E+00  0.00000E+00  3.18488E-01
    89  1.05445E-05 -9.99989E-01 -9.99989E-01 -1.11245E-10  0.00000E+00  0.00000E+00  3.18488E-01
    90  1.08699E-05 -9.99989E-01 -9.99989E-01 -1.18217E-10  0.00000E+00  0.00000E+00  3.18488E-01
    91  1.12045E-05 -9.99989E-01 -9.99989E-01 -1.25607E-10  0.00000E+00  0.00000E+00  3.18487E-01
    92  1.15485E-05 -9.99988E-01 -9.99988E-01 -1.33438E-10  0.00000E+00  0.00000E+00  3.18487E-01
    93  1.19022E-05 -9.99988E-01 -9.99988E-01 -1.41737E-10  0.00000E+00  0.00000E+00  3.18487E-01
    94  1.22659E-05 -9.99988E-01 -9.99988E-01 -1.50531E-10  0.00000E+00  0.00000E+00  3.18487E-01
    95  1.26398E-05 -9.99987E-01 -9.99987E-01 -1.59849E-10  0.00000E+00  0.00000E+00  3.18486E-01
    96  1.30243E-05 -9.99987E-01 -9.99987E-01 -1.69721E-10  0.00000E+00  0.00000E+00  3.18486E-01
    97  1.34196E-05 -9.99987E-01 -9.99987E-01 -1.80180E-10  0.00000E+00  0.00000E+00  3.18486E-01
    98  1.38261E-05 -9.99986E-01 -9.99986E-01 -1.91259E-10  0.00000E+00  0.00000E+00  3.18485E-01
    99  1.42440E-05 -9.99986E-01 -9.99986E-01 -2.02996E-10  0.00000E+00  0.00000E+00  3.18485E-01
   100  1.46737E-05 -9.99985E-01 -9.99985E-01 -2.15427E-10  0.00000E+00  0.00000E+00  3.18484E-01
   101  1.51155E-05 -9.99985E-01 -9.99985E-01 -2.28595E-10  0.00000E+00  0.00000E+00  3.18484E-01
   102  1.55697E-05 -9.99984E-01 -9.99984E-01 -2.42540E-10  0.00000E+00  0.00000E+00  3.18484E-01
   103  1.60368E-05 -9.99984E-01 -9.99984E-01 -2.57309E-10  0.00000E+00  0.00000E+00  3.18483E-01
   104  1.65170E-05 -9.99983E-01 -9.99983E-01 -2.72950E-10  0.00000E+00  0.00000E+00  3.18483E-01
   105  1.70108E-05 -9.99983E-01 -9.99983E-01 -2.89512E-10  0.00000E+00  0.00000E+00  3.18482E-01
   106  1.75185E-05 -9.99982E-01 -9.99982E-01 -3.07050E-10  0.00000E+00  0.00000E+00  3.18482E-01
   107  1.80405E-05 -9.99982E-01 -9.99982E-01 -3.25620E-10  0.00000E+00  0.00000E+00  3.18481E-01
   108  1.85772E-05 -9.99981E-01 -9.99981E-01 -3.45282E-10  0.00000E+00  0.00000E+00  3.18481E-01
   109  1.91290E-05 -9.99981E-01 -9.99981E-01 -3.66098E-10  0.00000E+00  0.00000E+00  3.18480E-01
   110  1.96964E-05 -9.99980E-01 -9.99980E-01 -3.88137E-10  0.00000E+00  0.00000E+00  3.18479E-01
   111  2.02798E-05 -9.99980E-01 -9.99980E-01 -4.11469E-10  0.00000E+00  0.00000E+00  3.18479E-01
   112  2.08796E-05 -9.99979E-01 -9.99979E-01 -4.36168E-10  0.00000E+00  0.00000E+00  3.18478E-01
   113  2.14963E-05 -9.99979E-01 -9.99979E-01 -4.62313E-10  0.00000E+00  0.00000E+00  3.18477E-01
   114  2.21305E-05 -9.99978E-01 -9.99978E-01 -4.89989E-10  0.00000E+00  0.00000E+00  3.18477E-01
   115  2.27824E-05 -9.99977E-01 -9.99977E-01 -5.19284E-10  0.00000E+00  0.00000E+00  3.18476E-01
   116  2.34528E-05 -9.99977E-01 -9.99977E-01 -5.50292E-10  0.00000E+00  0.00000E+00  3.18475E-01
   117  2.41421E-05 -9.99976E-01 -9.99976E-01 -5.83111E-10  0.00000E+00  0.00000E+00  3.18475E-01
   118  2.48508E-05 -9.99975E-01 -9.99975E-01 -6.17845E-10  0.00000E+00  0.00000E+00  3.18474E-01
   119  2.55795E-05 -9.99974E-01 -9.99974E-01 -6.54607E-10  0.00000E+00  0.00000E+00  3.18473E-01
   120  2.63287E-05 -9.99974E-01 -9.99974E-01 -6.93512E-10  0.00000E+00  0.00000E+00  3.18472E-01
   121  2.70990E-05 -9.99973E-01 -9.99973E-01 -7.34684E-10  0.00000E+00  0.00000E+00  3.18471E-01
   122  2.78911E-05 -9.99972E-01 -9.99972E-01 -7.78255E-10  0.00000E+00  0.00000E+00  3.18470E-01
   123  2.87054E-05 -9.99971E-01 -9.99971E-01 -8.24362E-10  0.00000E+00  0.00000E+00  3.18470E-01
   124  2.95428E-05 -9.99970E-01 -9.99970E-01 -8.73152E-10  0.00000E+00  0.00000E+00  3.18469E-01
   125  3.04037E-05 -9.99970E-01 -9.99970E-01 -9.24780E-10  0.00000E+00  0.00000E+00  3.18468E-01
   126  3.12889E-05 -9.99969E-01 -9.99969E-01 -9.79409E-10  0.00000E+00  0.00000E+00  3.18467E-01
   127  3.21990E-05 -9.99968E-01 -9.99968E-01 -1.03721E-09  0.00000E+00  0.00000E+00  3.18466E-01
   128  3.31348E-05 -9.99967E-01 -9.99967E-01 -1.09837E-09  0.00000E+00  0.00000E+00  3.18465E-01
   129  3.40970E-05 -9.99966E-01 -9.99966E-01 -1.16308E-09  0.00000E+00  0.00000E+00  3.18464E-01
   130  3.50863E-05 -9.99965E-01 -9.99965E-01 -1.23155E-09  0.00000E+00  0.00000E+00  3.18463E-01
   131  3.61035E-05 -9.99964E-01 -9.99964E-01 -1.30398E-09  0.00000E+00  0.00000E+00  3.18462E-01
   132  3.71494E-05 -9.99963E-01 -9.99963E-01 -1.38062E-09  0.00000E+00  0.00000E+00  3.18461E-01
   133  3.82247E-05 -9.99962E-01 -9.99962E-01 -1.46169E-09  0.00000E+00  0.00000E+00  3.18460E-01
   134  3.93304E-05 -9.99961E-01 -9.99961E-01 -1.54746E-09  0.00000E+00  0.00000E+00  3.18459E-01
   135  4.04672E-05 -9.99960E-01 -9.99960E-01 -1.63820E-09  0.00000E+00  0.00000E+00  3.18458E-01
   136  4.16360E-05 -9.99958E-01 -9.99958E-01 -1.73420E-09  0.00000E+00  0.00000E+00  3.18456E-01
   137  4.28379E-05 -9.99957E-01 -9.99957E-01 -1.83574E-09  0.00000E+00  0.00000E+00  3.18455E-01
   138  4.40735E-05 -9.99956E-01 -9.99956E-01 -1.94317E-09  0.00000E+00  0.00000E+00  3.18454E-01
   139  4.53441E-05 -9.99955E-01 -9.99955E-01 -2.05680E-09  0.00000E+00  0.00000E+00  3.18453E-01
   140  4.66504E-05 -9.99953E-01 -9.99953E-01 -2.17700E-09  0.00000E+00  0.00000E+00  3.18452E-01
   141  4.79935E-05 -9.99952E-01 -9.99952E-01 -2.30415E-09  0.00000E+00  0.00000E+00  3.18450E-01
   142  4.93746E-05 -9.99951E-01 -9.99951E-01 -2.43864E-09  0.00000E+00  0.00000E+00  3.18449E-01
   143  5.07945E-05 -9.99949E-01 -9.99949E-01 -2.58090E-09  0.00000E+00  0.00000E+00  3.18448E-01
   144  5.22545E-05 -9.99948E-01 -9.99948E-01 -2.73138E-09  0.00000E+00  0.00000E+00  3.18446E-01
   145  5.37556E-05 -9.99946E-01 -9.99946E-01 -2.89054E-09  0.00000E+00  0.00000E+00  3.18445E-01
   146  5.52990E-05 -9.99945E-01 -9.99945E-01 -3.05889E-09  0.00000E+00  0.00000E+00  3.18443E-01
   147  5.68859E-05 -9.99943E-01 -9.99943E-01 -3.23694E-09  0.00000E+00  0.00000E+00  3.18442E-01
   148  5.85176E-05 -9.99941E-01 -9.99941E-01 -3.42527E-09  0.00000E+00  0.00000E+00  3.18441E-01
   149  6.01953E-05 -9.99940E-01 -9.99940E-01 -3.62445E-09  0.00000E+00  0.00000E+00  3.18439E-01
   150  6.19202E-05 -9.99938E-01 -9.99938E-01 -3.83512E-09  0.00000E+00  0.00000E+00  3.18438E-01
   151  6.36938E-05 -9.99936E-01 -9.99936E-01 -4.05793E-09  0.00000E+00  0.00000E+00  3.18436E-01
   152  6.55174E-05 -9.99934E-01 -9.99934E-01 -4.29357E-09  0.00000E+00  0.00000E+00  3.18434E-01
   153  6.73923E-05 -9.99933E-01 -9.99933E-01 -4.54279E-09  0.00000E+00  0.00000E+00  3.18433E-01
   154  6.93201E-05 -9.99931E-01 -9.99931E-01 -4.80637E-09  0.00000E+00  0.00000E+00  3.18431E-01
   155  7.13023E-05 -9.99929E-01 -9.99929E-01 -5.08511E-09  0.00000E+00  0.00000E+00  3.18429E-01
   156  7.33403E-05 -9.99927E-01 -9.99927E-01 -5.37991E-09  0.00000E+00  0.00000E+00  3.18428E-01
   157  7.54358E-05 -9.99925E-01 -9.99925E-01 -5.69167E-09  0.00000E+00  0.00000E+00  3.18426E-01
   158  7.75903E-05 -9.99922E-01 -9.99922E-01 -6.02137E-09  0.00000E+00  0.00000E+00  3.18424E-01
   159  7.98056E-05 -9.99920E-01 -9.99920E-01 -6.37004E-09  0.00000E+00  0.00000E+00  3.18422E-01
   160  8.20833E-05 -9.99918E-01 -9.99918E-01 -6.73877E-09  0.00000E+00  0.00000E+00  3.18420E-01
   161  8.44252E-05 -9.99916E-01 -9.99916E-01 -7.12870E-09  0.00000E+00  0.00000E+00  3.18418E-01
   162  8.68331E-05 -9.99913E-01 -9.99913E-01 -7.54105E-09  0.00000E+00  0.00000E+00  3.18416E-01
   163  8.93089E-05 -9.99911E-01 -9.99911E-01 -7.97711E-09  0.00000E+00  0.00000E+00  3.18414E-01
   164  9.18545E-05 -9.99908E-01 -9.99908E-01 -8.43824E-09  0.00000E+00  0.00000E+00  3.18412E-01
   165  9.44719E-05 -9.99906E-01 -9.99906E-01 -8.92586E-09  0.00000E+00  0.00000E+00  3.18410E-01
   166  9.71630E-05 -9.99903E-01 -9.99903E-01 -9.44150E-09  0.00000E+00  0.00000E+00  3.18408E-01
   167  9.99300E-05 -9.99900E-01 -9.99900E-01 -9.98677E-09  0.00000E+00  0.00000E+00  3.18406E-01
   168  1.02775E-04 -9.99897E-01 -9.99897E-01 -1.05634E-08  0.00000E+00  0.00000E+00  3.18403E-01
   169  1.05700E-04 -9.99894E-01 -9.99894E-01 -1.11731E-08  0.00000E+00  0.00000E+00  3.18401E-01
   170  1.08708E-04 -9.99891E-01 -9.99891E-01 -1.18178E-08  0.00000E+00  0.00000E+00  3.18399E-01
   171  1.11800E-04 -9.99888E-01 -9.99888E-01 -1.24995E-08  0.00000E+00  0.00000E+00  3.18396E-01
   172  1.14980E-04 -9.99885E-01 -9.99885E-01 -1.32204E-08  0.00000E+00  0.00000E+00  3.18394E-01
   173  1.18249E-04 -9.99882E-01 -9.99882E-01 -1.39827E-08  0.00000E+00  0.00000E+00  3.18391E-01
   174  1.21610E-04 -9.99878E-01 -9.99878E-01 -1.47887E-08  0.00000E+00  0.00000E+00  3.18389E-01
   175  1.25066E-04 -9.99875E-01 -9.99875E-01 -1.56409E-08  0.00000E+00  0.00000E+00  3.18386E-01
   176  1.28620E-04 -9.99871E-01 -9.99871E-01 -1.65421E-08  0.00000E+00  0.00000E+00  3.18383E-01
   177  1.32273E-04 -9.99868E-01 -9.99868E-01 -1.74949E-08  0.00000E+00  0.00000E+00  3.18381E-01
   178  1.36030E-04 -9.99864E-01 -9.99864E-01 -1.85025E-08  0.00000E+00  0.00000E+00  3.18378E-01
   179  1.39892E-04 -9.99860E-01 -9.99860E-01 -1.95678E-08  0.00000E+00  0.00000E+00  3.18375E-01
   180  1.43864E-04 -9.99856E-01 -9.99856E-01 -2.06942E-08  0.00000E+00  0.00000E+00  3.18372E-01
   181  1.47947E-04 -9.99852E-01 -9.99852E-01 -2.18852E-08  0.00000E+00  0.00000E+00  3.18369E-01
   182  1.52146E-04 -9.99848E-01 -9.99848E-01 -2.31445E-08  0.00000E+00  0.00000E+00  3.18366E-01
   183  1.56462E-04 -9.99844E-01 -9.99844E-01 -2.44760E-08  0.00000E+00  0.00000E+00  3.18362E-01
   184  1.60901E-04 -9.99839E-01 -9.99839E-01 -2.58838E-08  0.00000E+00  0.00000E+00  3.18359E-01
   185  1.65464E-04 -9.99835E-01 -9.99835E-01 -2.73723E-08  0.00000E+00  0.00000E+00  3.18356E-01
   186  1.70157E-04 -9.99830E-01 -9.99830E-01 -2.89461E-08  0.00000E+00  0.00000E+00  3.18352E-01
   187  1.74981E-04 -9.99825E-01 -9.99825E-01 -3.06101E-08  0.00000E+00  0.00000E+00  3.18349E-01
   188  1.79941E-04 -9.99820E-01 -9.99820E-01 -3.23695E-08  0.00000E+00  0.00000E+00  3.18345E-01
   189  1.85042E-04 -9.99815E-01 -9.99815E-01 -3.42297E-08  0.00000E+00  0.00000E+00  3.18341E-01
   190  1.90286E-04 -9.99810E-01 -9.99810E-01 -3.61964E-08  0.00000E+00  0.00000E+00  3.18338E-01
   191  1.95678E-04 -9.99804E-01 -9.99804E-01 -3.82758E-08  0.00000E+00  0.00000E+00  3.18334E-01
   192  2.01221E-04 -9.99799E-01 -9.99799E-01 -4.04743E-08  0.00000E+00  0.00000E+00  3.18330E-01
   193  2.06921E-04 -9.99793E-01 -9.99793E-01 -4.27988E-08  0.00000E+00  0.00000E+00  3.18326E-01
   194  2.12782E-04 -9.99787E-01 -9.99787E-01 -4.52563E-08  0.00000E+00  0.00000E+00  3.18321E-01
   195  2.18808E-04 -9.99781E-01 -9.99781E-01 -4.78546E-08  0.00000E+00  0.00000E+00  3.18317E-01
   196  2.25004E-04 -9.99775E-01 -9.99775E-01 -5.06017E-08  0.00000E+00  0.00000E+00  3.18313E-01
   197  2.31374E-04 -9.99769E-01 -9.99769E-01 -5.35061E-08  0.00000E+00  0.00000E+00  3.18308E-01
   198  2.37924E-04 -9.99762E-01 -9.99762E-01 -5.65767E-08  0.00000E+00  0.00000E+00  3.18304E-01
   199  2.44659E-04 -9.99755E-01 -9.99755E-01 -5.98231E-08  0.00000E+00  0.00000E+00  3.18299E-01
   200  2.51583E-04 -9.99748E-01 -9.99748E-01 -6.32553E-08  0.00000E+00  0.00000E+00  3.18294E-01
