 #  Scattering amplitudes (in cm)      MU=(1-cos(TH))/2
 #  Z =   1,   projectile: electron
 #  Kinetic energy = 2.46000E+02 eV
 #
 # TH (deg)      MU          Re(F)        Im(F)        Re(G)        Im(G)
 #--------------------------------------------------------------------------
  0.000E+00  0.00000E+00  5.54512E-09  7.83105E-10  0.00000E+00  0.00000E+00
  1.000E-04  7.61557E-13  5.54512E-09  7.83105E-10  2.41875E-18  3.10504E-19
  1.250E-04  1.18994E-12  5.54512E-09  7.83105E-10  3.02344E-18  3.88130E-19
  1.500E-04  1.71346E-12  5.54512E-09  7.83105E-10  3.62813E-18  4.65756E-19
  1.750E-04  2.33225E-12  5.54512E-09  7.83105E-10  4.23281E-18  5.43381E-19
  2.000E-04  3.04617E-12  5.54512E-09  7.83105E-10  4.83750E-18  6.21007E-19
  2.250E-04  3.85530E-12  5.54512E-09  7.83105E-10  5.44219E-18  6.98633E-19
  2.500E-04  4.75964E-12  5.54512E-09  7.83105E-10  6.04688E-18  7.76259E-19
  2.750E-04  5.75917E-12  5.54512E-09  7.83105E-10  6.65157E-18  8.53885E-19
  3.000E-04  6.85391E-12  5.54512E-09  7.83105E-10  7.25625E-18  9.31511E-19
  3.250E-04  8.04379E-12  5.54512E-09  7.83105E-10  7.86094E-18  1.00914E-18
  3.500E-04  9.32893E-12  5.54512E-09  7.83105E-10  8.46563E-18  1.08676E-18
  3.750E-04  1.07092E-11  5.54512E-09  7.83105E-10  9.07032E-18  1.16439E-18
  4.000E-04  1.21847E-11  5.54512E-09  7.83105E-10  9.67501E-18  1.24201E-18
  4.250E-04  1.37554E-11  5.54512E-09  7.83105E-10  1.02797E-17  1.31964E-18
  4.500E-04  1.54213E-11  5.54512E-09  7.83105E-10  1.08844E-17  1.39727E-18
  4.750E-04  1.71823E-11  5.54512E-09  7.83105E-10  1.14891E-17  1.47489E-18
  5.000E-04  1.90386E-11  5.54512E-09  7.83105E-10  1.20938E-17  1.55252E-18
  5.250E-04  2.09900E-11  5.54512E-09  7.83105E-10  1.26984E-17  1.63014E-18
  5.500E-04  2.30367E-11  5.54512E-09  7.83105E-10  1.33031E-17  1.70777E-18
  5.750E-04  2.51785E-11  5.54512E-09  7.83105E-10  1.39078E-17  1.78540E-18
  6.000E-04  2.74156E-11  5.54512E-09  7.83105E-10  1.45125E-17  1.86302E-18
  6.250E-04  2.97478E-11  5.54512E-09  7.83105E-10  1.51172E-17  1.94065E-18
  6.500E-04  3.21752E-11  5.54512E-09  7.83105E-10  1.57219E-17  2.01827E-18
  6.750E-04  3.46979E-11  5.54512E-09  7.83105E-10  1.63266E-17  2.09590E-18
  7.000E-04  3.73157E-11  5.54512E-09  7.83105E-10  1.69313E-17  2.17353E-18
  7.250E-04  4.00286E-11  5.54512E-09  7.83105E-10  1.75359E-17  2.25115E-18
  7.500E-04  4.28368E-11  5.54512E-09  7.83105E-10  1.81406E-17  2.32878E-18
  7.750E-04  4.57402E-11  5.54512E-09  7.83105E-10  1.87453E-17  2.40640E-18
  8.000E-04  4.87388E-11  5.54512E-09  7.83105E-10  1.93500E-17  2.48403E-18
  8.250E-04  5.18325E-11  5.54512E-09  7.83105E-10  1.99547E-17  2.56166E-18
  8.500E-04  5.50215E-11  5.54512E-09  7.83105E-10  2.05594E-17  2.63928E-18
  8.750E-04  5.83057E-11  5.54512E-09  7.83105E-10  2.11641E-17  2.71691E-18
  9.000E-04  6.16850E-11  5.54512E-09  7.83105E-10  2.17688E-17  2.79453E-18
  9.250E-04  6.51595E-11  5.54512E-09  7.83105E-10  2.23734E-17  2.87216E-18
  9.500E-04  6.87293E-11  5.54512E-09  7.83105E-10  2.29781E-17  2.94978E-18
  9.750E-04  7.23943E-11  5.54512E-09  7.83105E-10  2.35828E-17  3.02741E-18
  1.000E-03  7.61544E-11  5.54512E-09  7.83105E-10  2.41875E-17  3.10504E-18
  1.250E-03  1.18991E-10  5.54512E-09  7.83105E-10  3.02344E-17  3.88130E-18
  1.500E-03  1.71347E-10  5.54512E-09  7.83105E-10  3.62813E-17  4.65756E-18
  1.750E-03  2.33223E-10  5.54512E-09  7.83105E-10  4.23281E-17  5.43381E-18
  2.000E-03  3.04617E-10  5.54512E-09  7.83105E-10  4.83750E-17  6.21007E-18
  2.250E-03  3.85531E-10  5.54512E-09  7.83105E-10  5.44219E-17  6.98633E-18
  2.500E-03  4.75965E-10  5.54512E-09  7.83105E-10  6.04688E-17  7.76259E-18
  2.750E-03  5.75917E-10  5.54512E-09  7.83105E-10  6.65157E-17  8.53885E-18
  3.000E-03  6.85389E-10  5.54512E-09  7.83105E-10  7.25625E-17  9.31511E-18
  3.250E-03  8.04380E-10  5.54512E-09  7.83105E-10  7.86094E-17  1.00914E-17
  3.500E-03  9.32891E-10  5.54512E-09  7.83105E-10  8.46563E-17  1.08676E-17
  3.750E-03  1.07092E-09  5.54512E-09  7.83105E-10  9.07032E-17  1.16439E-17
  4.000E-03  1.21847E-09  5.54512E-09  7.83105E-10  9.67500E-17  1.24201E-17
  4.250E-03  1.37554E-09  5.54512E-09  7.83105E-10  1.02797E-16  1.31964E-17
  4.500E-03  1.54213E-09  5.54512E-09  7.83105E-10  1.08844E-16  1.39727E-17
  4.750E-03  1.71823E-09  5.54512E-09  7.83105E-10  1.14891E-16  1.47489E-17
  5.000E-03  1.90386E-09  5.54512E-09  7.83105E-10  1.20938E-16  1.55252E-17
  5.250E-03  2.09900E-09  5.54512E-09  7.83105E-10  1.26984E-16  1.63014E-17
  5.500E-03  2.30367E-09  5.54512E-09  7.83105E-10  1.33031E-16  1.70777E-17
  5.750E-03  2.51785E-09  5.54512E-09  7.83105E-10  1.39078E-16  1.78540E-17
  6.000E-03  2.74156E-09  5.54512E-09  7.83105E-10  1.45125E-16  1.86302E-17
  6.250E-03  2.97478E-09  5.54512E-09  7.83105E-10  1.51172E-16  1.94065E-17
  6.500E-03  3.21752E-09  5.54512E-09  7.83105E-10  1.57219E-16  2.01827E-17
  6.750E-03  3.46978E-09  5.54512E-09  7.83105E-10  1.63266E-16  2.09590E-17
  7.000E-03  3.73156E-09  5.54512E-09  7.83105E-10  1.69313E-16  2.17353E-17
  7.250E-03  4.00286E-09  5.54512E-09  7.83105E-10  1.75359E-16  2.25115E-17
  7.500E-03  4.28368E-09  5.54512E-09  7.83105E-10  1.81406E-16  2.32878E-17
  7.750E-03  4.57402E-09  5.54512E-09  7.83105E-10  1.87453E-16  2.40640E-17
  8.000E-03  4.87388E-09  5.54512E-09  7.83105E-10  1.93500E-16  2.48403E-17
  8.250E-03  5.18326E-09  5.54512E-09  7.83105E-10  1.99547E-16  2.56166E-17
  8.500E-03  5.50215E-09  5.54512E-09  7.83105E-10  2.05594E-16  2.63928E-17
  8.750E-03  5.83057E-09  5.54512E-09  7.83105E-10  2.11641E-16  2.71691E-17
  9.000E-03  6.16850E-09  5.54512E-09  7.83105E-10  2.17688E-16  2.79453E-17
  9.250E-03  6.51596E-09  5.54512E-09  7.83105E-10  2.23734E-16  2.87216E-17
  9.500E-03  6.87293E-09  5.54512E-09  7.83105E-10  2.29781E-16  2.94978E-17
  9.750E-03  7.23942E-09  5.54512E-09  7.83105E-10  2.35828E-16  3.02741E-17
  1.000E-02  7.61544E-09  5.54512E-09  7.83105E-10  2.41875E-16  3.10504E-17
  1.250E-02  1.18991E-08  5.54512E-09  7.83105E-10  3.02344E-16  3.88130E-17
  1.500E-02  1.71347E-08  5.54512E-09  7.83105E-10  3.62813E-16  4.65755E-17
  1.750E-02  2.33223E-08  5.54511E-09  7.83105E-10  4.23281E-16  5.43381E-17
  2.000E-02  3.04617E-08  5.54511E-09  7.83105E-10  4.83750E-16  6.21007E-17
  2.250E-02  3.85531E-08  5.54511E-09  7.83105E-10  5.44218E-16  6.98633E-17
  2.500E-02  4.75965E-08  5.54511E-09  7.83105E-10  6.04687E-16  7.76259E-17
  2.750E-02  5.75917E-08  5.54511E-09  7.83105E-10  6.65156E-16  8.53885E-17
  3.000E-02  6.85389E-08  5.54511E-09  7.83104E-10  7.25624E-16  9.31511E-17
  3.250E-02  8.04380E-08  5.54511E-09  7.83104E-10  7.86092E-16  1.00914E-16
  3.500E-02  9.32891E-08  5.54510E-09  7.83104E-10  8.46561E-16  1.08676E-16
  3.750E-02  1.07092E-07  5.54510E-09  7.83104E-10  9.07029E-16  1.16439E-16
  4.000E-02  1.21847E-07  5.54510E-09  7.83104E-10  9.67497E-16  1.24201E-16
  4.250E-02  1.37554E-07  5.54510E-09  7.83104E-10  1.02797E-15  1.31964E-16
  4.500E-02  1.54213E-07  5.54509E-09  7.83104E-10  1.08843E-15  1.39727E-16
  4.750E-02  1.71823E-07  5.54509E-09  7.83104E-10  1.14890E-15  1.47489E-16
  5.000E-02  1.90386E-07  5.54509E-09  7.83104E-10  1.20937E-15  1.55252E-16
  5.250E-02  2.09900E-07  5.54509E-09  7.83104E-10  1.26984E-15  1.63014E-16
  5.500E-02  2.30367E-07  5.54508E-09  7.83104E-10  1.33030E-15  1.70777E-16
  5.750E-02  2.51785E-07  5.54508E-09  7.83104E-10  1.39077E-15  1.78539E-16
  6.000E-02  2.74156E-07  5.54508E-09  7.83104E-10  1.45124E-15  1.86302E-16
  6.250E-02  2.97478E-07  5.54507E-09  7.83104E-10  1.51171E-15  1.94064E-16
  6.500E-02  3.21752E-07  5.54507E-09  7.83103E-10  1.57217E-15  2.01827E-16
  6.750E-02  3.46978E-07  5.54506E-09  7.83103E-10  1.63264E-15  2.09590E-16
  7.000E-02  3.73156E-07  5.54506E-09  7.83103E-10  1.69311E-15  2.17352E-16
  7.250E-02  4.00286E-07  5.54506E-09  7.83103E-10  1.75358E-15  2.25115E-16
  7.500E-02  4.28368E-07  5.54505E-09  7.83103E-10  1.81404E-15  2.32877E-16
  7.750E-02  4.57402E-07  5.54505E-09  7.83103E-10  1.87451E-15  2.40640E-16
  8.000E-02  4.87388E-07  5.54504E-09  7.83103E-10  1.93497E-15  2.48402E-16
  8.250E-02  5.18325E-07  5.54504E-09  7.83103E-10  1.99544E-15  2.56165E-16
  8.500E-02  5.50215E-07  5.54503E-09  7.83102E-10  2.05591E-15  2.63927E-16
  8.750E-02  5.83057E-07  5.54503E-09  7.83102E-10  2.11637E-15  2.71690E-16
  9.000E-02  6.16850E-07  5.54502E-09  7.83102E-10  2.17684E-15  2.79452E-16
  9.250E-02  6.51596E-07  5.54502E-09  7.83102E-10  2.23730E-15  2.87215E-16
  9.500E-02  6.87293E-07  5.54501E-09  7.83102E-10  2.29777E-15  2.94977E-16
  9.750E-02  7.23942E-07  5.54501E-09  7.83102E-10  2.35824E-15  3.02740E-16
  1.000E-01  7.61543E-07  5.54500E-09  7.83102E-10  2.41870E-15  3.10502E-16
  1.250E-01  1.18991E-06  5.54493E-09  7.83100E-10  3.02334E-15  3.88127E-16
  1.500E-01  1.71347E-06  5.54485E-09  7.83097E-10  3.62795E-15  4.65751E-16
  1.750E-01  2.33223E-06  5.54476E-09  7.83095E-10  4.23254E-15  5.43374E-16
  2.000E-01  3.04617E-06  5.54465E-09  7.83092E-10  4.83709E-15  6.20996E-16
  2.250E-01  3.85531E-06  5.54452E-09  7.83088E-10  5.44161E-15  6.98617E-16
  2.500E-01  4.75964E-06  5.54438E-09  7.83084E-10  6.04608E-15  7.76237E-16
  2.750E-01  5.75916E-06  5.54423E-09  7.83080E-10  6.65051E-15  8.53856E-16
  3.000E-01  6.85388E-06  5.54406E-09  7.83075E-10  7.25488E-15  9.31473E-16
  3.250E-01  8.04378E-06  5.54387E-09  7.83070E-10  7.85919E-15  1.00909E-15
  3.500E-01  9.32888E-06  5.54367E-09  7.83065E-10  8.46344E-15  1.08670E-15
  3.750E-01  1.07092E-05  5.54346E-09  7.83059E-10  9.06763E-15  1.16431E-15
  4.000E-01  1.21846E-05  5.54323E-09  7.83053E-10  9.67174E-15  1.24192E-15
  4.250E-01  1.37553E-05  5.54299E-09  7.83046E-10  1.02758E-14  1.31953E-15
  4.500E-01  1.54212E-05  5.54273E-09  7.83039E-10  1.08797E-14  1.39714E-15
  4.750E-01  1.71822E-05  5.54246E-09  7.83031E-10  1.14836E-14  1.47474E-15
  5.000E-01  1.90385E-05  5.54217E-09  7.83023E-10  1.20874E-14  1.55234E-15
  5.250E-01  2.09899E-05  5.54187E-09  7.83015E-10  1.26911E-14  1.62994E-15
  5.500E-01  2.30365E-05  5.54155E-09  7.83006E-10  1.32946E-14  1.70754E-15
  5.750E-01  2.51783E-05  5.54122E-09  7.82997E-10  1.38981E-14  1.78513E-15
  6.000E-01  2.74153E-05  5.54087E-09  7.82987E-10  1.45015E-14  1.86272E-15
  6.250E-01  2.97475E-05  5.54051E-09  7.82977E-10  1.51048E-14  1.94030E-15
  6.500E-01  3.21749E-05  5.54013E-09  7.82967E-10  1.57079E-14  2.01789E-15
  6.750E-01  3.46974E-05  5.53974E-09  7.82956E-10  1.63109E-14  2.09547E-15
  7.000E-01  3.73152E-05  5.53934E-09  7.82945E-10  1.69138E-14  2.17304E-15
  7.250E-01  4.00281E-05  5.53892E-09  7.82934E-10  1.75165E-14  2.25061E-15
  7.500E-01  4.28362E-05  5.53849E-09  7.82922E-10  1.81191E-14  2.32818E-15
  7.750E-01  4.57395E-05  5.53804E-09  7.82909E-10  1.87216E-14  2.40575E-15
  8.000E-01  4.87380E-05  5.53757E-09  7.82896E-10  1.93239E-14  2.48331E-15
  8.250E-01  5.18317E-05  5.53709E-09  7.82883E-10  1.99261E-14  2.56086E-15
  8.500E-01  5.50205E-05  5.53660E-09  7.82869E-10  2.05281E-14  2.63842E-15
  8.750E-01  5.83045E-05  5.53609E-09  7.82855E-10  2.11299E-14  2.71596E-15
  9.000E-01  6.16838E-05  5.53557E-09  7.82841E-10  2.17316E-14  2.79351E-15
  9.250E-01  6.51582E-05  5.53503E-09  7.82826E-10  2.23331E-14  2.87104E-15
  9.500E-01  6.87277E-05  5.53448E-09  7.82811E-10  2.29345E-14  2.94858E-15
  9.750E-01  7.23925E-05  5.53392E-09  7.82795E-10  2.35356E-14  3.02610E-15
  1.000E+00  7.61524E-05  5.53334E-09  7.82779E-10  2.41366E-14  3.10363E-15
  1.100E+00  9.21439E-05  5.53087E-09  7.82711E-10  2.65385E-14  3.41366E-15
  1.200E+00  1.09658E-04  5.52816E-09  7.82636E-10  2.89371E-14  3.72361E-15
  1.300E+00  1.28695E-04  5.52523E-09  7.82554E-10  3.13320E-14  4.03345E-15
  1.400E+00  1.49255E-04  5.52206E-09  7.82467E-10  3.37231E-14  4.34319E-15
  1.500E+00  1.71338E-04  5.51867E-09  7.82372E-10  3.61098E-14  4.65280E-15
  1.600E+00  1.94942E-04  5.51504E-09  7.82271E-10  3.84921E-14  4.96229E-15
  1.700E+00  2.20070E-04  5.51118E-09  7.82164E-10  4.08695E-14  5.27164E-15
  1.800E+00  2.46720E-04  5.50710E-09  7.82050E-10  4.32418E-14  5.58086E-15
  1.900E+00  2.74892E-04  5.50279E-09  7.81930E-10  4.56087E-14  5.88991E-15
  2.000E+00  3.04586E-04  5.49825E-09  7.81803E-10  4.79700E-14  6.19881E-15
  2.100E+00  3.35803E-04  5.49348E-09  7.81670E-10  5.03252E-14  6.50754E-15
  2.200E+00  3.68542E-04  5.48849E-09  7.81531E-10  5.26742E-14  6.81610E-15
  2.300E+00  4.02802E-04  5.48328E-09  7.81385E-10  5.50167E-14  7.12447E-15
  2.400E+00  4.38585E-04  5.47785E-09  7.81232E-10  5.73524E-14  7.43265E-15
  2.500E+00  4.75889E-04  5.47219E-09  7.81074E-10  5.96809E-14  7.74062E-15
  2.600E+00  5.14715E-04  5.46631E-09  7.80908E-10  6.20022E-14  8.04839E-15
  2.700E+00  5.55063E-04  5.46022E-09  7.80737E-10  6.43157E-14  8.35594E-15
  2.800E+00  5.96931E-04  5.45390E-09  7.80559E-10  6.66214E-14  8.66326E-15
  2.900E+00  6.40321E-04  5.44738E-09  7.80374E-10  6.89189E-14  8.97035E-15
  3.000E+00  6.85233E-04  5.44063E-09  7.80183E-10  7.12080E-14  9.27719E-15
  3.100E+00  7.31665E-04  5.43368E-09  7.79986E-10  7.34885E-14  9.58379E-15
  3.200E+00  7.79618E-04  5.42651E-09  7.79783E-10  7.57599E-14  9.89012E-15
  3.300E+00  8.29092E-04  5.41913E-09  7.79573E-10  7.80222E-14  1.01962E-14
  3.400E+00  8.80086E-04  5.41154E-09  7.79356E-10  8.02751E-14  1.05020E-14
  3.500E+00  9.32601E-04  5.40375E-09  7.79134E-10  8.25182E-14  1.08075E-14
  3.600E+00  9.86636E-04  5.39575E-09  7.78905E-10  8.47514E-14  1.11127E-14
  3.700E+00  1.04219E-03  5.38755E-09  7.78670E-10  8.69745E-14  1.14176E-14
  3.800E+00  1.09927E-03  5.37914E-09  7.78429E-10  8.91871E-14  1.17223E-14
  3.900E+00  1.15786E-03  5.37054E-09  7.78181E-10  9.13892E-14  1.20266E-14
  4.000E+00  1.21797E-03  5.36174E-09  7.77927E-10  9.35803E-14  1.23305E-14
  4.100E+00  1.27961E-03  5.35274E-09  7.77667E-10  9.57604E-14  1.26342E-14
  4.200E+00  1.34276E-03  5.34354E-09  7.77400E-10  9.79291E-14  1.29375E-14
  4.300E+00  1.40743E-03  5.33415E-09  7.77128E-10  1.00086E-13  1.32405E-14
  4.400E+00  1.47362E-03  5.32458E-09  7.76849E-10  1.02232E-13  1.35431E-14
  4.500E+00  1.54133E-03  5.31481E-09  7.76564E-10  1.04365E-13  1.38453E-14
  4.600E+00  1.61056E-03  5.30486E-09  7.76272E-10  1.06487E-13  1.41472E-14
  4.700E+00  1.68131E-03  5.29472E-09  7.75975E-10  1.08596E-13  1.44487E-14
  4.800E+00  1.75357E-03  5.28440E-09  7.75672E-10  1.10692E-13  1.47498E-14
  4.900E+00  1.82735E-03  5.27389E-09  7.75362E-10  1.12776E-13  1.50505E-14
  5.000E+00  1.90265E-03  5.26321E-09  7.75046E-10  1.14847E-13  1.53508E-14
  5.100E+00  1.97947E-03  5.25236E-09  7.74724E-10  1.16904E-13  1.56508E-14
  5.200E+00  2.05780E-03  5.24132E-09  7.74396E-10  1.18949E-13  1.59503E-14
  5.300E+00  2.13765E-03  5.23012E-09  7.74062E-10  1.20979E-13  1.62493E-14
  5.400E+00  2.21902E-03  5.21875E-09  7.73722E-10  1.22997E-13  1.65480E-14
  5.500E+00  2.30190E-03  5.20720E-09  7.73376E-10  1.25000E-13  1.68462E-14
  5.600E+00  2.38630E-03  5.19550E-09  7.73024E-10  1.26989E-13  1.71439E-14
  5.700E+00  2.47222E-03  5.18363E-09  7.72666E-10  1.28965E-13  1.74413E-14
  5.800E+00  2.55965E-03  5.17159E-09  7.72302E-10  1.30926E-13  1.77381E-14
  5.900E+00  2.64859E-03  5.15940E-09  7.71932E-10  1.32872E-13  1.80345E-14
  6.000E+00  2.73905E-03  5.14706E-09  7.71556E-10  1.34804E-13  1.83304E-14
  6.100E+00  2.83103E-03  5.13455E-09  7.71174E-10  1.36721E-13  1.86258E-14
  6.200E+00  2.92452E-03  5.12190E-09  7.70786E-10  1.38623E-13  1.89207E-14
  6.300E+00  3.01952E-03  5.10910E-09  7.70392E-10  1.40511E-13  1.92152E-14
  6.400E+00  3.11604E-03  5.09615E-09  7.69993E-10  1.42383E-13  1.95091E-14
  6.500E+00  3.21407E-03  5.08305E-09  7.69587E-10  1.44240E-13  1.98025E-14
  6.600E+00  3.31362E-03  5.06982E-09  7.69176E-10  1.46081E-13  2.00955E-14
  6.700E+00  3.41468E-03  5.05644E-09  7.68759E-10  1.47907E-13  2.03878E-14
  6.800E+00  3.51725E-03  5.04292E-09  7.68336E-10  1.49718E-13  2.06797E-14
  6.900E+00  3.62133E-03  5.02927E-09  7.67908E-10  1.51512E-13  2.09710E-14
  7.000E+00  3.72692E-03  5.01549E-09  7.67473E-10  1.53291E-13  2.12618E-14
  7.100E+00  3.83403E-03  5.00158E-09  7.67033E-10  1.55054E-13  2.15520E-14
  7.200E+00  3.94265E-03  4.98754E-09  7.66588E-10  1.56801E-13  2.18417E-14
  7.300E+00  4.05278E-03  4.97337E-09  7.66136E-10  1.58532E-13  2.21307E-14
  7.400E+00  4.16442E-03  4.95908E-09  7.65679E-10  1.60247E-13  2.24193E-14
  7.500E+00  4.27757E-03  4.94467E-09  7.65217E-10  1.61945E-13  2.27072E-14
  7.600E+00  4.39223E-03  4.93015E-09  7.64748E-10  1.63627E-13  2.29946E-14
  7.700E+00  4.50840E-03  4.91550E-09  7.64274E-10  1.65293E-13  2.32813E-14
  7.800E+00  4.62608E-03  4.90075E-09  7.63795E-10  1.66942E-13  2.35675E-14
  7.900E+00  4.74527E-03  4.88588E-09  7.63310E-10  1.68574E-13  2.38531E-14
  8.000E+00  4.86597E-03  4.87090E-09  7.62820E-10  1.70190E-13  2.41380E-14
  8.100E+00  4.98817E-03  4.85582E-09  7.62324E-10  1.71790E-13  2.44224E-14
  8.200E+00  5.11188E-03  4.84064E-09  7.61822E-10  1.73372E-13  2.47061E-14
  8.300E+00  5.23711E-03  4.82535E-09  7.61315E-10  1.74938E-13  2.49891E-14
  8.400E+00  5.36383E-03  4.80996E-09  7.60803E-10  1.76487E-13  2.52716E-14
  8.500E+00  5.49207E-03  4.79448E-09  7.60285E-10  1.78020E-13  2.55534E-14
  8.600E+00  5.62181E-03  4.77891E-09  7.59762E-10  1.79535E-13  2.58346E-14
  8.700E+00  5.75306E-03  4.76324E-09  7.59234E-10  1.81034E-13  2.61151E-14
  8.800E+00  5.88581E-03  4.74749E-09  7.58700E-10  1.82515E-13  2.63949E-14
  8.900E+00  6.02007E-03  4.73165E-09  7.58161E-10  1.83980E-13  2.66741E-14
  9.000E+00  6.15583E-03  4.71572E-09  7.57617E-10  1.85427E-13  2.69526E-14
  9.100E+00  6.29310E-03  4.69971E-09  7.57068E-10  1.86858E-13  2.72304E-14
  9.200E+00  6.43187E-03  4.68363E-09  7.56513E-10  1.88272E-13  2.75075E-14
  9.300E+00  6.57214E-03  4.66747E-09  7.55953E-10  1.89668E-13  2.77840E-14
  9.400E+00  6.71392E-03  4.65123E-09  7.55388E-10  1.91048E-13  2.80597E-14
  9.500E+00  6.85720E-03  4.63492E-09  7.54818E-10  1.92411E-13  2.83348E-14
  9.600E+00  7.00198E-03  4.61854E-09  7.54243E-10  1.93756E-13  2.86092E-14
  9.700E+00  7.14827E-03  4.60209E-09  7.53662E-10  1.95085E-13  2.88828E-14
  9.800E+00  7.29605E-03  4.58558E-09  7.53077E-10  1.96396E-13  2.91557E-14
  9.900E+00  7.44534E-03  4.56900E-09  7.52487E-10  1.97691E-13  2.94279E-14
  1.000E+01  7.59612E-03  4.55236E-09  7.51891E-10  1.98969E-13  2.96994E-14
  1.025E+01  7.97965E-03  4.51052E-09  7.50381E-10  2.02089E-13  3.03748E-14
  1.050E+01  8.37255E-03  4.46835E-09  7.48840E-10  2.05103E-13  3.10456E-14
  1.075E+01  8.77480E-03  4.42588E-09  7.47269E-10  2.08013E-13  3.17117E-14
  1.100E+01  9.18641E-03  4.38314E-09  7.45669E-10  2.10818E-13  3.23729E-14
  1.125E+01  9.60736E-03  4.34018E-09  7.44039E-10  2.13520E-13  3.30292E-14
  1.150E+01  1.00376E-02  4.29702E-09  7.42380E-10  2.16118E-13  3.36806E-14
  1.175E+01  1.04773E-02  4.25369E-09  7.40693E-10  2.18615E-13  3.43269E-14
  1.200E+01  1.09262E-02  4.21023E-09  7.38978E-10  2.21011E-13  3.49681E-14
  1.225E+01  1.13844E-02  4.16666E-09  7.37236E-10  2.23307E-13  3.56041E-14
  1.250E+01  1.18520E-02  4.12301E-09  7.35467E-10  2.25505E-13  3.62349E-14
  1.275E+01  1.23288E-02  4.07931E-09  7.33671E-10  2.27606E-13  3.68604E-14
  1.300E+01  1.28150E-02  4.03559E-09  7.31850E-10  2.29610E-13  3.74806E-14
  1.325E+01  1.33104E-02  3.99187E-09  7.30002E-10  2.31520E-13  3.80953E-14
  1.350E+01  1.38150E-02  3.94818E-09  7.28130E-10  2.33338E-13  3.87046E-14
  1.375E+01  1.43290E-02  3.90455E-09  7.26234E-10  2.35063E-13  3.93083E-14
  1.400E+01  1.48521E-02  3.86098E-09  7.24314E-10  2.36699E-13  3.99065E-14
  1.425E+01  1.53845E-02  3.81752E-09  7.22370E-10  2.38246E-13  4.04990E-14
  1.450E+01  1.59262E-02  3.77418E-09  7.20403E-10  2.39707E-13  4.10859E-14
  1.475E+01  1.64770E-02  3.73097E-09  7.18413E-10  2.41083E-13  4.16671E-14
  1.500E+01  1.70371E-02  3.68793E-09  7.16402E-10  2.42375E-13  4.22425E-14
