 #
 # Subroutine ELSEPA. Elastic scattering of electrons and positrons
 #                    by neutral atoms and positive ions
 #
 # Projectile: electron
 # Kinetic energy = 5.00000E+01 eV = 1.83747E+00 a.u.
 #
 #  ***  WARNING: Energy is too low.
 #                The reliability of the results is questionable.
 #
 # Element:  O,  Z =   8,  atomic weight = 1.59994E+01 g/mol
 #
 # Nuclear model: point charge
 #
 # Number of electrons =  8
 #
 # Electron density: Read from file z_008.den   
 #                   Number of data points =  681
 #                   Volume integral = 8.00000E+00
 #
 # Furness-McCarthy exchange potential
 #
 # Total elastic cross section = 3.93559E-16 cm**2 = 1.40542E+01 a0**2
 # 1st transport cross section = 3.08243E-16 cm**2 = 1.10075E+01 a0**2
 # 2nd transport cross section = 2.15393E-16 cm**2 = 7.69181E+00 a0**2
 #
 #
 # Differential cross section:                       MU=(1-COS(THETA))/2
 #
 #  THETA        MU          DCS          DCS        Sherman      error
 #  (deg)                 (cm**2/sr)   (a0**2/sr)    function
 #----------------------------------------------------------------------
  0.000E+00  0.00000E+00  1.77382E-16  6.33444E+00  0.00000E+00  1.0E-07
  1.000E-04  7.61557E-13  1.77382E-16  6.33444E+00 -1.45809E-11  1.0E-07
  1.250E-04  1.18994E-12  1.77382E-16  6.33444E+00 -1.82262E-11  1.0E-07
  1.500E-04  1.71346E-12  1.77382E-16  6.33444E+00 -2.18714E-11  1.0E-07
  1.750E-04  2.33225E-12  1.77382E-16  6.33444E+00 -2.55166E-11  1.0E-07
  2.000E-04  3.04617E-12  1.77382E-16  6.33444E+00 -2.91619E-11  1.0E-07
  2.250E-04  3.85530E-12  1.77382E-16  6.33444E+00 -3.28071E-11  1.0E-07
  2.500E-04  4.75964E-12  1.77382E-16  6.33444E+00 -3.64523E-11  1.0E-07
  2.750E-04  5.75917E-12  1.77382E-16  6.33444E+00 -4.00976E-11  1.0E-07
  3.000E-04  6.85391E-12  1.77382E-16  6.33444E+00 -4.37428E-11  1.0E-07
  3.250E-04  8.04379E-12  1.77382E-16  6.33444E+00 -4.73880E-11  1.0E-07
  3.500E-04  9.32893E-12  1.77382E-16  6.33444E+00 -5.10333E-11  1.0E-07
  3.750E-04  1.07092E-11  1.77382E-16  6.33444E+00 -5.46785E-11  1.0E-07
  4.000E-04  1.21847E-11  1.77382E-16  6.33444E+00 -5.83237E-11  1.0E-07
  4.250E-04  1.37554E-11  1.77382E-16  6.33444E+00 -6.19690E-11  1.0E-07
  4.500E-04  1.54213E-11  1.77382E-16  6.33444E+00 -6.56142E-11  1.0E-07
  4.750E-04  1.71823E-11  1.77382E-16  6.33444E+00 -6.92594E-11  1.0E-07
  5.000E-04  1.90386E-11  1.77382E-16  6.33444E+00 -7.29047E-11  1.0E-07
  5.250E-04  2.09900E-11  1.77382E-16  6.33444E+00 -7.65499E-11  1.0E-07
  5.500E-04  2.30367E-11  1.77382E-16  6.33444E+00 -8.01951E-11  1.0E-07
  5.750E-04  2.51785E-11  1.77382E-16  6.33444E+00 -8.38404E-11  1.0E-07
  6.000E-04  2.74156E-11  1.77382E-16  6.33444E+00 -8.74856E-11  1.0E-07
  6.250E-04  2.97478E-11  1.77382E-16  6.33444E+00 -9.11308E-11  1.0E-07
  6.500E-04  3.21752E-11  1.77382E-16  6.33444E+00 -9.47761E-11  1.0E-07
  6.750E-04  3.46979E-11  1.77382E-16  6.33444E+00 -9.84213E-11  1.0E-07
  7.000E-04  3.73157E-11  1.77382E-16  6.33444E+00 -1.02067E-10  1.0E-07
  7.250E-04  4.00286E-11  1.77382E-16  6.33444E+00 -1.05712E-10  1.0E-07
  7.500E-04  4.28368E-11  1.77382E-16  6.33444E+00 -1.09357E-10  1.0E-07
  7.750E-04  4.57402E-11  1.77382E-16  6.33444E+00 -1.13002E-10  1.0E-07
  8.000E-04  4.87388E-11  1.77382E-16  6.33444E+00 -1.16647E-10  1.0E-07
  8.250E-04  5.18325E-11  1.77382E-16  6.33444E+00 -1.20293E-10  1.0E-07
  8.500E-04  5.50215E-11  1.77382E-16  6.33444E+00 -1.23938E-10  1.0E-07
  8.750E-04  5.83057E-11  1.77382E-16  6.33444E+00 -1.27583E-10  1.0E-07
  9.000E-04  6.16850E-11  1.77382E-16  6.33444E+00 -1.31228E-10  1.0E-07
  9.250E-04  6.51595E-11  1.77382E-16  6.33444E+00 -1.34874E-10  1.0E-07
  9.500E-04  6.87293E-11  1.77382E-16  6.33444E+00 -1.38519E-10  1.0E-07
  9.750E-04  7.23943E-11  1.77382E-16  6.33444E+00 -1.42164E-10  1.0E-07
  1.000E-03  7.61544E-11  1.77382E-16  6.33444E+00 -1.45809E-10  1.0E-07
  1.250E-03  1.18991E-10  1.77382E-16  6.33444E+00 -1.82262E-10  1.0E-07
  1.500E-03  1.71347E-10  1.77382E-16  6.33444E+00 -2.18714E-10  1.0E-07
  1.750E-03  2.33223E-10  1.77382E-16  6.33444E+00 -2.55166E-10  1.0E-07
  2.000E-03  3.04617E-10  1.77382E-16  6.33444E+00 -2.91619E-10  1.0E-07
  2.250E-03  3.85531E-10  1.77382E-16  6.33444E+00 -3.28071E-10  1.0E-07
  2.500E-03  4.75965E-10  1.77382E-16  6.33444E+00 -3.64523E-10  1.0E-07
  2.750E-03  5.75917E-10  1.77382E-16  6.33444E+00 -4.00976E-10  1.0E-07
  3.000E-03  6.85389E-10  1.77382E-16  6.33444E+00 -4.37428E-10  1.0E-07
  3.250E-03  8.04380E-10  1.77382E-16  6.33444E+00 -4.73880E-10  1.0E-07
  3.500E-03  9.32891E-10  1.77382E-16  6.33444E+00 -5.10332E-10  1.0E-07
  3.750E-03  1.07092E-09  1.77382E-16  6.33444E+00 -5.46785E-10  1.0E-07
  4.000E-03  1.21847E-09  1.77382E-16  6.33444E+00 -5.83237E-10  1.0E-07
  4.250E-03  1.37554E-09  1.77382E-16  6.33444E+00 -6.19689E-10  1.0E-07
  4.500E-03  1.54213E-09  1.77382E-16  6.33444E+00 -6.56142E-10  1.0E-07
  4.750E-03  1.71823E-09  1.77382E-16  6.33444E+00 -6.92594E-10  1.0E-07
  5.000E-03  1.90386E-09  1.77382E-16  6.33444E+00 -7.29046E-10  1.0E-07
  5.250E-03  2.09900E-09  1.77382E-16  6.33444E+00 -7.65498E-10  1.0E-07
  5.500E-03  2.30367E-09  1.77382E-16  6.33444E+00 -8.01951E-10  1.0E-07
  5.750E-03  2.51785E-09  1.77382E-16  6.33444E+00 -8.38403E-10  1.0E-07
  6.000E-03  2.74156E-09  1.77382E-16  6.33444E+00 -8.74855E-10  1.0E-07
  6.250E-03  2.97478E-09  1.77382E-16  6.33444E+00 -9.11307E-10  1.0E-07
  6.500E-03  3.21752E-09  1.77382E-16  6.33444E+00 -9.47760E-10  1.0E-07
  6.750E-03  3.46978E-09  1.77382E-16  6.33444E+00 -9.84212E-10  1.0E-07
  7.000E-03  3.73156E-09  1.77382E-16  6.33444E+00 -1.02066E-09  1.0E-07
  7.250E-03  4.00286E-09  1.77382E-16  6.33444E+00 -1.05712E-09  1.0E-07
  7.500E-03  4.28368E-09  1.77382E-16  6.33444E+00 -1.09357E-09  1.0E-07
  7.750E-03  4.57402E-09  1.77382E-16  6.33444E+00 -1.13002E-09  1.0E-07
  8.000E-03  4.87388E-09  1.77382E-16  6.33444E+00 -1.16647E-09  1.0E-07
  8.250E-03  5.18326E-09  1.77382E-16  6.33444E+00 -1.20292E-09  1.0E-07
  8.500E-03  5.50215E-09  1.77382E-16  6.33444E+00 -1.23938E-09  1.0E-07
  8.750E-03  5.83057E-09  1.77382E-16  6.33444E+00 -1.27583E-09  1.0E-07
  9.000E-03  6.16850E-09  1.77382E-16  6.33444E+00 -1.31228E-09  1.0E-07
  9.250E-03  6.51596E-09  1.77382E-16  6.33444E+00 -1.34873E-09  1.0E-07
  9.500E-03  6.87293E-09  1.77382E-16  6.33444E+00 -1.38519E-09  1.0E-07
  9.750E-03  7.23942E-09  1.77382E-16  6.33444E+00 -1.42164E-09  1.0E-07
  1.000E-02  7.61544E-09  1.77382E-16  6.33444E+00 -1.45809E-09  1.0E-07
  1.250E-02  1.18991E-08  1.77382E-16  6.33444E+00 -1.82261E-09  1.0E-07
  1.500E-02  1.71347E-08  1.77382E-16  6.33444E+00 -2.18713E-09  1.0E-07
  1.750E-02  2.33223E-08  1.77382E-16  6.33444E+00 -2.55164E-09  1.0E-07
  2.000E-02  3.04617E-08  1.77382E-16  6.33444E+00 -2.91616E-09  1.0E-07
  2.250E-02  3.85531E-08  1.77382E-16  6.33444E+00 -3.28067E-09  1.0E-07
  2.500E-02  4.75965E-08  1.77382E-16  6.33444E+00 -3.64517E-09  1.0E-07
  2.750E-02  5.75917E-08  1.77382E-16  6.33444E+00 -4.00968E-09  1.0E-07
  3.000E-02  6.85389E-08  1.77382E-16  6.33444E+00 -4.37417E-09  1.0E-07
  3.250E-02  8.04380E-08  1.77382E-16  6.33444E+00 -4.73867E-09  1.0E-07
  3.500E-02  9.32891E-08  1.77382E-16  6.33444E+00 -5.10316E-09  1.0E-07
  3.750E-02  1.07092E-07  1.77382E-16  6.33443E+00 -5.46764E-09  1.0E-07
  4.000E-02  1.21847E-07  1.77382E-16  6.33443E+00 -5.83212E-09  1.0E-07
  4.250E-02  1.37554E-07  1.77382E-16  6.33443E+00 -6.19660E-09  1.0E-07
  4.500E-02  1.54213E-07  1.77382E-16  6.33443E+00 -6.56107E-09  1.0E-07
  4.750E-02  1.71823E-07  1.77382E-16  6.33443E+00 -6.92553E-09  1.0E-07
  5.000E-02  1.90386E-07  1.77382E-16  6.33443E+00 -7.28998E-09  1.0E-07
  5.250E-02  2.09900E-07  1.77382E-16  6.33443E+00 -7.65443E-09  1.0E-07
  5.500E-02  2.30367E-07  1.77382E-16  6.33443E+00 -8.01887E-09  1.0E-07
  5.750E-02  2.51785E-07  1.77382E-16  6.33442E+00 -8.38330E-09  1.0E-07
  6.000E-02  2.74156E-07  1.77382E-16  6.33442E+00 -8.74772E-09  1.0E-07
  6.250E-02  2.97478E-07  1.77382E-16  6.33442E+00 -9.11213E-09  1.0E-07
  6.500E-02  3.21752E-07  1.77382E-16  6.33442E+00 -9.47654E-09  1.0E-07
  6.750E-02  3.46978E-07  1.77382E-16  6.33442E+00 -9.84093E-09  1.0E-07
  7.000E-02  3.73156E-07  1.77382E-16  6.33442E+00 -1.02053E-08  1.0E-07
  7.250E-02  4.00286E-07  1.77382E-16  6.33441E+00 -1.05697E-08  1.0E-07
  7.500E-02  4.28368E-07  1.77382E-16  6.33441E+00 -1.09341E-08  1.0E-07
  7.750E-02  4.57402E-07  1.77382E-16  6.33441E+00 -1.12984E-08  1.0E-07
  8.000E-02  4.87388E-07  1.77381E-16  6.33441E+00 -1.16628E-08  1.0E-07
  8.250E-02  5.18325E-07  1.77381E-16  6.33441E+00 -1.20271E-08  1.0E-07
  8.500E-02  5.50215E-07  1.77381E-16  6.33440E+00 -1.23914E-08  1.0E-07
  8.750E-02  5.83057E-07  1.77381E-16  6.33440E+00 -1.27557E-08  1.0E-07
  9.000E-02  6.16850E-07  1.77381E-16  6.33440E+00 -1.31200E-08  1.0E-07
  9.250E-02  6.51596E-07  1.77381E-16  6.33440E+00 -1.34843E-08  1.0E-07
  9.500E-02  6.87293E-07  1.77381E-16  6.33439E+00 -1.38486E-08  1.0E-07
  9.750E-02  7.23942E-07  1.77381E-16  6.33439E+00 -1.42128E-08  1.0E-07
  1.000E-01  7.61543E-07  1.77381E-16  6.33439E+00 -1.45770E-08  1.0E-07
  1.250E-01  1.18991E-06  1.77380E-16  6.33436E+00 -1.82186E-08  1.0E-07
  1.500E-01  1.71347E-06  1.77379E-16  6.33432E+00 -2.18583E-08  1.0E-07
  1.750E-01  2.33223E-06  1.77378E-16  6.33428E+00 -2.54958E-08  1.0E-07
  2.000E-01  3.04617E-06  1.77376E-16  6.33423E+00 -2.91307E-08  1.0E-07
  2.250E-01  3.85531E-06  1.77375E-16  6.33417E+00 -3.27628E-08  1.0E-07
  2.500E-01  4.75964E-06  1.77373E-16  6.33411E+00 -3.63916E-08  1.0E-07
  2.750E-01  5.75916E-06  1.77371E-16  6.33404E+00 -4.00167E-08  1.0E-07
  3.000E-01  6.85388E-06  1.77369E-16  6.33396E+00 -4.36378E-08  1.0E-07
  3.250E-01  8.04378E-06  1.77367E-16  6.33388E+00 -4.72545E-08  1.0E-07
  3.500E-01  9.32888E-06  1.77364E-16  6.33379E+00 -5.08665E-08  1.0E-07
  3.750E-01  1.07092E-05  1.77362E-16  6.33370E+00 -5.44734E-08  1.0E-07
  4.000E-01  1.21846E-05  1.77359E-16  6.33359E+00 -5.80748E-08  1.0E-07
  4.250E-01  1.37553E-05  1.77356E-16  6.33348E+00 -6.16704E-08  1.0E-07
  4.500E-01  1.54212E-05  1.77352E-16  6.33337E+00 -6.52597E-08  1.0E-07
  4.750E-01  1.71822E-05  1.77349E-16  6.33325E+00 -6.88425E-08  1.0E-07
  5.000E-01  1.90385E-05  1.77345E-16  6.33312E+00 -7.24184E-08  1.0E-07
  5.250E-01  2.09899E-05  1.77342E-16  6.33298E+00 -7.59870E-08  1.0E-07
  5.500E-01  2.30365E-05  1.77338E-16  6.33284E+00 -7.95479E-08  1.0E-07
  5.750E-01  2.51783E-05  1.77333E-16  6.33269E+00 -8.31008E-08  1.0E-07
  6.000E-01  2.74153E-05  1.77329E-16  6.33253E+00 -8.66453E-08  1.0E-07
  6.250E-01  2.97475E-05  1.77324E-16  6.33237E+00 -9.01811E-08  1.0E-07
  6.500E-01  3.21749E-05  1.77320E-16  6.33220E+00 -9.37077E-08  1.0E-07
  6.750E-01  3.46974E-05  1.77315E-16  6.33203E+00 -9.72249E-08  1.0E-07
  7.000E-01  3.73152E-05  1.77310E-16  6.33184E+00 -1.00732E-07  1.0E-07
  7.250E-01  4.00281E-05  1.77304E-16  6.33166E+00 -1.04229E-07  1.0E-07
  7.500E-01  4.28362E-05  1.77299E-16  6.33146E+00 -1.07716E-07  1.0E-07
  7.750E-01  4.57395E-05  1.77293E-16  6.33126E+00 -1.11191E-07  1.0E-07
  8.000E-01  4.87380E-05  1.77287E-16  6.33105E+00 -1.14656E-07  1.0E-07
  8.250E-01  5.18317E-05  1.77281E-16  6.33083E+00 -1.18108E-07  1.0E-07
  8.500E-01  5.50205E-05  1.77275E-16  6.33061E+00 -1.21549E-07  1.0E-07
  8.750E-01  5.83045E-05  1.77269E-16  6.33038E+00 -1.24977E-07  1.0E-07
  9.000E-01  6.16838E-05  1.77262E-16  6.33015E+00 -1.28392E-07  1.0E-07
  9.250E-01  6.51582E-05  1.77255E-16  6.32991E+00 -1.31794E-07  1.0E-07
  9.500E-01  6.87277E-05  1.77248E-16  6.32966E+00 -1.35183E-07  1.0E-07
  9.750E-01  7.23925E-05  1.77241E-16  6.32940E+00 -1.38558E-07  1.0E-07
  1.000E+00  7.61524E-05  1.77234E-16  6.32914E+00 -1.41918E-07  1.0E-07
  1.100E+00  9.21439E-05  1.77203E-16  6.32803E+00 -1.55211E-07  1.0E-07
  1.200E+00  1.09658E-04  1.77169E-16  6.32681E+00 -1.68246E-07  1.0E-07
  1.300E+00  1.28695E-04  1.77132E-16  6.32549E+00 -1.81001E-07  1.0E-07
  1.400E+00  1.49255E-04  1.77092E-16  6.32406E+00 -1.93452E-07  1.0E-07
  1.500E+00  1.71338E-04  1.77049E-16  6.32252E+00 -2.05575E-07  1.0E-07
  1.600E+00  1.94942E-04  1.77003E-16  6.32089E+00 -2.17347E-07  1.0E-07
  1.700E+00  2.20070E-04  1.76954E-16  6.31914E+00 -2.28744E-07  1.0E-07
  1.800E+00  2.46720E-04  1.76902E-16  6.31729E+00 -2.39743E-07  1.0E-07
  1.900E+00  2.74892E-04  1.76847E-16  6.31534E+00 -2.50320E-07  1.0E-07
  2.000E+00  3.04586E-04  1.76790E-16  6.31328E+00 -2.60452E-07  1.0E-07
  2.100E+00  3.35803E-04  1.76729E-16  6.31111E+00 -2.70114E-07  1.0E-07
  2.200E+00  3.68542E-04  1.76666E-16  6.30884E+00 -2.79283E-07  1.0E-07
  2.300E+00  4.02802E-04  1.76599E-16  6.30647E+00 -2.87935E-07  1.0E-07
  2.400E+00  4.38585E-04  1.76530E-16  6.30399E+00 -2.96047E-07  1.0E-07
  2.500E+00  4.75889E-04  1.76458E-16  6.30141E+00 -3.03595E-07  1.0E-07
  2.600E+00  5.14715E-04  1.76382E-16  6.29873E+00 -3.10553E-07  1.0E-07
  2.700E+00  5.55063E-04  1.76304E-16  6.29594E+00 -3.16900E-07  1.0E-07
  2.800E+00  5.96931E-04  1.76223E-16  6.29305E+00 -3.22610E-07  1.0E-07
  2.900E+00  6.40321E-04  1.76139E-16  6.29005E+00 -3.27660E-07  1.0E-07
  3.000E+00  6.85233E-04  1.76053E-16  6.28695E+00 -3.32025E-07  1.0E-07
  3.100E+00  7.31665E-04  1.75963E-16  6.28375E+00 -3.35682E-07  1.0E-07
  3.200E+00  7.79618E-04  1.75870E-16  6.28045E+00 -3.38606E-07  1.0E-07
  3.300E+00  8.29092E-04  1.75775E-16  6.27704E+00 -3.40772E-07  1.0E-07
  3.400E+00  8.80086E-04  1.75677E-16  6.27353E+00 -3.42157E-07  1.0E-07
  3.500E+00  9.32601E-04  1.75576E-16  6.26992E+00 -3.42736E-07  1.0E-07
  3.600E+00  9.86636E-04  1.75472E-16  6.26621E+00 -3.42485E-07  1.0E-07
  3.700E+00  1.04219E-03  1.75365E-16  6.26240E+00 -3.41379E-07  1.0E-07
  3.800E+00  1.09927E-03  1.75255E-16  6.25848E+00 -3.39393E-07  1.0E-07
  3.900E+00  1.15786E-03  1.75143E-16  6.25447E+00 -3.36503E-07  1.0E-07
  4.000E+00  1.21797E-03  1.75028E-16  6.25035E+00 -3.32684E-07  1.0E-07
  4.100E+00  1.27961E-03  1.74910E-16  6.24613E+00 -3.27912E-07  1.0E-07
  4.200E+00  1.34276E-03  1.74789E-16  6.24182E+00 -3.22160E-07  1.0E-07
  4.300E+00  1.40743E-03  1.74665E-16  6.23740E+00 -3.15405E-07  1.0E-07
  4.400E+00  1.47362E-03  1.74538E-16  6.23288E+00 -3.07622E-07  1.0E-07
  4.500E+00  1.54133E-03  1.74409E-16  6.22827E+00 -2.98784E-07  1.0E-07
  4.600E+00  1.61056E-03  1.74277E-16  6.22355E+00 -2.88868E-07  1.0E-07
  4.700E+00  1.68131E-03  1.74142E-16  6.21874E+00 -2.77847E-07  1.0E-07
  4.800E+00  1.75357E-03  1.74005E-16  6.21383E+00 -2.65696E-07  1.0E-07
  4.900E+00  1.82735E-03  1.73865E-16  6.20882E+00 -2.52390E-07  1.0E-07
  5.000E+00  1.90265E-03  1.73722E-16  6.20371E+00 -2.37904E-07  1.0E-07
  5.100E+00  1.97947E-03  1.73576E-16  6.19850E+00 -2.22211E-07  1.0E-07
  5.200E+00  2.05780E-03  1.73427E-16  6.19320E+00 -2.05285E-07  1.0E-07
  5.300E+00  2.13765E-03  1.73276E-16  6.18780E+00 -1.87102E-07  1.0E-07
  5.400E+00  2.21902E-03  1.73122E-16  6.18231E+00 -1.67635E-07  1.0E-07
  5.500E+00  2.30190E-03  1.72966E-16  6.17672E+00 -1.46858E-07  1.0E-07
  5.600E+00  2.38630E-03  1.72807E-16  6.17103E+00 -1.24744E-07  1.0E-07
  5.700E+00  2.47222E-03  1.72645E-16  6.16525E+00 -1.01268E-07  1.0E-07
  5.800E+00  2.55965E-03  1.72480E-16  6.15937E+00 -7.64032E-08  1.0E-07
  5.900E+00  2.64859E-03  1.72313E-16  6.15340E+00 -5.01231E-08  1.0E-07
  6.000E+00  2.73905E-03  1.72143E-16  6.14734E+00  0.00000E+00  1.0E-07
  6.100E+00  2.83103E-03  1.71971E-16  6.14118E+00  0.00000E+00  1.0E-07
  6.200E+00  2.92452E-03  1.71795E-16  6.13493E+00  3.74753E-08  1.0E-07
  6.300E+00  3.01952E-03  1.71618E-16  6.12858E+00  6.96835E-08  1.0E-07
  6.400E+00  3.11604E-03  1.71438E-16  6.12215E+00  1.03441E-07  1.0E-07
  6.500E+00  3.21407E-03  1.71255E-16  6.11562E+00  1.38775E-07  1.0E-07
  6.600E+00  3.31362E-03  1.71069E-16  6.10900E+00  1.75713E-07  1.0E-07
  6.700E+00  3.41468E-03  1.70881E-16  6.10228E+00  2.14282E-07  1.0E-07
  6.800E+00  3.51725E-03  1.70691E-16  6.09548E+00  2.54509E-07  1.0E-07
  6.900E+00  3.62133E-03  1.70498E-16  6.08859E+00  2.96423E-07  1.0E-07
  7.000E+00  3.72692E-03  1.70302E-16  6.08161E+00  3.40051E-07  1.0E-07
  7.100E+00  3.83403E-03  1.70104E-16  6.07453E+00  3.85421E-07  1.0E-07
  7.200E+00  3.94265E-03  1.69904E-16  6.06737E+00  4.32561E-07  1.0E-07
  7.300E+00  4.05278E-03  1.69701E-16  6.06012E+00  4.81499E-07  1.0E-07
  7.400E+00  4.16442E-03  1.69495E-16  6.05279E+00  5.32263E-07  1.0E-07
  7.500E+00  4.27757E-03  1.69287E-16  6.04536E+00  5.84883E-07  1.0E-07
  7.600E+00  4.39223E-03  1.69077E-16  6.03785E+00  6.39386E-07  1.0E-07
  7.700E+00  4.50840E-03  1.68864E-16  6.03025E+00  6.95801E-07  1.0E-07
  7.800E+00  4.62608E-03  1.68649E-16  6.02256E+00  7.54157E-07  1.0E-07
  7.900E+00  4.74527E-03  1.68431E-16  6.01479E+00  8.14484E-07  1.0E-07
  8.000E+00  4.86597E-03  1.68211E-16  6.00694E+00  8.76809E-07  1.0E-07
  8.100E+00  4.98817E-03  1.67989E-16  5.99900E+00  9.41163E-07  1.0E-07
  8.200E+00  5.11188E-03  1.67764E-16  5.99097E+00  1.00758E-06  1.0E-07
  8.300E+00  5.23711E-03  1.67537E-16  5.98286E+00  1.07608E-06  1.0E-07
  8.400E+00  5.36383E-03  1.67308E-16  5.97467E+00  1.14669E-06  1.0E-07
  8.500E+00  5.49207E-03  1.67076E-16  5.96640E+00  1.21946E-06  1.0E-07
  8.600E+00  5.62181E-03  1.66842E-16  5.95804E+00  1.29440E-06  1.0E-07
  8.700E+00  5.75306E-03  1.66606E-16  5.94960E+00  1.37155E-06  1.0E-07
  8.800E+00  5.88581E-03  1.66367E-16  5.94108E+00  1.45093E-06  1.0E-07
  8.900E+00  6.02007E-03  1.66126E-16  5.93248E+00  1.53259E-06  1.0E-07
  9.000E+00  6.15583E-03  1.65883E-16  5.92380E+00  1.61654E-06  1.0E-07
  9.100E+00  6.29310E-03  1.65638E-16  5.91504E+00  1.70283E-06  1.0E-07
  9.200E+00  6.43187E-03  1.65391E-16  5.90620E+00  1.79147E-06  1.0E-07
  9.300E+00  6.57214E-03  1.65141E-16  5.89729E+00  1.88251E-06  1.0E-07
  9.400E+00  6.71392E-03  1.64889E-16  5.88829E+00  1.97597E-06  1.0E-07
  9.500E+00  6.85720E-03  1.64635E-16  5.87922E+00  2.07189E-06  1.0E-07
  9.600E+00  7.00198E-03  1.64379E-16  5.87007E+00  2.17029E-06  1.0E-07
  9.700E+00  7.14827E-03  1.64120E-16  5.86085E+00  2.27121E-06  1.0E-07
  9.800E+00  7.29605E-03  1.63860E-16  5.85155E+00  2.37469E-06  1.0E-07
  9.900E+00  7.44534E-03  1.63597E-16  5.84217E+00  2.48074E-06  1.0E-07
  1.000E+01  7.59612E-03  1.63333E-16  5.83272E+00  2.58941E-06  1.0E-07
  1.025E+01  7.97965E-03  1.62662E-16  5.80877E+00  2.87275E-06  1.0E-07
  1.050E+01  8.37255E-03  1.61979E-16  5.78437E+00  3.17315E-06  1.0E-07
  1.075E+01  8.77480E-03  1.61283E-16  5.75953E+00  3.49114E-06  1.0E-07
  1.100E+01  9.18641E-03  1.60575E-16  5.73425E+00  3.82724E-06  1.0E-07
  1.125E+01  9.60736E-03  1.59856E-16  5.70855E+00  4.18200E-06  1.0E-07
  1.150E+01  1.00376E-02  1.59124E-16  5.68243E+00  4.55595E-06  1.0E-07
  1.175E+01  1.04773E-02  1.58381E-16  5.65590E+00  4.94966E-06  1.0E-07
  1.200E+01  1.09262E-02  1.57627E-16  5.62898E+00  5.36368E-06  1.0E-07
  1.225E+01  1.13844E-02  1.56863E-16  5.60167E+00  5.79858E-06  1.0E-07
  1.250E+01  1.18520E-02  1.56087E-16  5.57398E+00  6.25493E-06  1.0E-07
  1.275E+01  1.23288E-02  1.55302E-16  5.54593E+00  6.73333E-06  1.0E-07
  1.300E+01  1.28150E-02  1.54506E-16  5.51751E+00  7.23437E-06  1.0E-07
  1.325E+01  1.33104E-02  1.53701E-16  5.48875E+00  7.75865E-06  1.0E-07
  1.350E+01  1.38150E-02  1.52886E-16  5.45966E+00  8.30678E-06  1.0E-07
  1.375E+01  1.43290E-02  1.52062E-16  5.43023E+00  8.87938E-06  1.0E-07
  1.400E+01  1.48521E-02  1.51229E-16  5.40049E+00  9.47709E-06  1.0E-07
  1.425E+01  1.53845E-02  1.50388E-16  5.37044E+00  1.01005E-05  1.0E-07
  1.450E+01  1.59262E-02  1.49538E-16  5.34010E+00  1.07504E-05  1.0E-07
  1.475E+01  1.64770E-02  1.48680E-16  5.30946E+00  1.14273E-05  1.0E-07
  1.500E+01  1.70371E-02  1.47815E-16  5.27855E+00  1.21319E-05  1.0E-07
  1.525E+01  1.76063E-02  1.46941E-16  5.24738E+00  1.28649E-05  1.0E-07
  1.550E+01  1.81848E-02  1.46061E-16  5.21594E+00  1.36270E-05  1.0E-07
