 #
 # Subroutine ELSEPA. Elastic scattering of electrons and positrons
 #                    by neutral atoms and positive ions
 #
 # Projectile: electron
 # Kinetic energy = 6.40000E+01 eV = 2.35196E+00 a.u.
 #
 #  ***  WARNING: Energy is too low.
 #                The reliability of the results is questionable.
 #
 # Element:  H,  Z =   1,  atomic weight = 1.00790E+00 g/mol
 #
 # Nuclear model: point charge
 #
 # Number of electrons =  1
 #
 # Electron density: Read from file z_001.den   
 #                   Number of data points =  751
 #                   Volume integral = 1.00000E+00
 #
 # Furness-McCarthy exchange potential
 #
 # Total elastic cross section = 5.49278E-17 cm**2 = 1.96151E+00 a0**2
 # 1st transport cross section = 1.91667E-17 cm**2 = 6.84454E-01 a0**2
 # 2nd transport cross section = 3.34510E-17 cm**2 = 1.19456E+00 a0**2
 #
 #
 # Differential cross section:                       MU=(1-COS(THETA))/2
 #
 #  THETA        MU          DCS          DCS        Sherman      error
 #  (deg)                 (cm**2/sr)   (a0**2/sr)    function
 #----------------------------------------------------------------------
  0.000E+00  0.00000E+00  4.04487E-17  1.44445E+00  0.00000E+00  1.0E-07
  1.000E-04  7.61557E-13  4.04487E-17  1.44445E+00 -1.63560E-11  1.0E-07
  1.250E-04  1.18994E-12  4.04487E-17  1.44445E+00 -2.04450E-11  1.0E-07
  1.500E-04  1.71346E-12  4.04487E-17  1.44445E+00 -2.45339E-11  1.0E-07
  1.750E-04  2.33225E-12  4.04487E-17  1.44445E+00 -2.86229E-11  1.0E-07
  2.000E-04  3.04617E-12  4.04487E-17  1.44445E+00 -3.27119E-11  1.0E-07
  2.250E-04  3.85530E-12  4.04487E-17  1.44445E+00 -3.68009E-11  1.0E-07
  2.500E-04  4.75964E-12  4.04487E-17  1.44445E+00 -4.08899E-11  1.0E-07
  2.750E-04  5.75917E-12  4.04487E-17  1.44445E+00 -4.49789E-11  1.0E-07
  3.000E-04  6.85391E-12  4.04487E-17  1.44445E+00 -4.90679E-11  1.0E-07
  3.250E-04  8.04379E-12  4.04487E-17  1.44445E+00 -5.31569E-11  1.0E-07
  3.500E-04  9.32893E-12  4.04487E-17  1.44445E+00 -5.72459E-11  1.0E-07
  3.750E-04  1.07092E-11  4.04487E-17  1.44445E+00 -6.13349E-11  1.0E-07
  4.000E-04  1.21847E-11  4.04487E-17  1.44445E+00 -6.54239E-11  1.0E-07
  4.250E-04  1.37554E-11  4.04487E-17  1.44445E+00 -6.95129E-11  1.0E-07
  4.500E-04  1.54213E-11  4.04487E-17  1.44445E+00 -7.36018E-11  1.0E-07
  4.750E-04  1.71823E-11  4.04487E-17  1.44445E+00 -7.76908E-11  1.0E-07
  5.000E-04  1.90386E-11  4.04487E-17  1.44445E+00 -8.17798E-11  1.0E-07
  5.250E-04  2.09900E-11  4.04487E-17  1.44445E+00 -8.58688E-11  1.0E-07
  5.500E-04  2.30367E-11  4.04487E-17  1.44445E+00 -8.99578E-11  1.0E-07
  5.750E-04  2.51785E-11  4.04487E-17  1.44445E+00 -9.40468E-11  1.0E-07
  6.000E-04  2.74156E-11  4.04487E-17  1.44445E+00 -9.81358E-11  1.0E-07
  6.250E-04  2.97478E-11  4.04487E-17  1.44445E+00 -1.02225E-10  1.0E-07
  6.500E-04  3.21752E-11  4.04487E-17  1.44445E+00 -1.06314E-10  1.0E-07
  6.750E-04  3.46979E-11  4.04487E-17  1.44445E+00 -1.10403E-10  1.0E-07
  7.000E-04  3.73157E-11  4.04487E-17  1.44445E+00 -1.14492E-10  1.0E-07
  7.250E-04  4.00286E-11  4.04487E-17  1.44445E+00 -1.18581E-10  1.0E-07
  7.500E-04  4.28368E-11  4.04487E-17  1.44445E+00 -1.22670E-10  1.0E-07
  7.750E-04  4.57402E-11  4.04487E-17  1.44445E+00 -1.26759E-10  1.0E-07
  8.000E-04  4.87388E-11  4.04487E-17  1.44445E+00 -1.30848E-10  1.0E-07
  8.250E-04  5.18325E-11  4.04487E-17  1.44445E+00 -1.34937E-10  1.0E-07
  8.500E-04  5.50215E-11  4.04487E-17  1.44445E+00 -1.39026E-10  1.0E-07
  8.750E-04  5.83057E-11  4.04487E-17  1.44445E+00 -1.43115E-10  1.0E-07
  9.000E-04  6.16850E-11  4.04487E-17  1.44445E+00 -1.47204E-10  1.0E-07
  9.250E-04  6.51595E-11  4.04487E-17  1.44445E+00 -1.51293E-10  1.0E-07
  9.500E-04  6.87293E-11  4.04487E-17  1.44445E+00 -1.55382E-10  1.0E-07
  9.750E-04  7.23943E-11  4.04487E-17  1.44445E+00 -1.59471E-10  1.0E-07
  1.000E-03  7.61544E-11  4.04487E-17  1.44445E+00 -1.63560E-10  1.0E-07
  1.250E-03  1.18991E-10  4.04487E-17  1.44445E+00 -2.04450E-10  1.0E-07
  1.500E-03  1.71347E-10  4.04487E-17  1.44445E+00 -2.45339E-10  1.0E-07
  1.750E-03  2.33223E-10  4.04487E-17  1.44445E+00 -2.86229E-10  1.0E-07
  2.000E-03  3.04617E-10  4.04487E-17  1.44445E+00 -3.27119E-10  1.0E-07
  2.250E-03  3.85531E-10  4.04487E-17  1.44445E+00 -3.68009E-10  1.0E-07
  2.500E-03  4.75965E-10  4.04487E-17  1.44445E+00 -4.08899E-10  1.0E-07
  2.750E-03  5.75917E-10  4.04487E-17  1.44445E+00 -4.49789E-10  1.0E-07
  3.000E-03  6.85389E-10  4.04487E-17  1.44445E+00 -4.90679E-10  1.0E-07
  3.250E-03  8.04380E-10  4.04487E-17  1.44445E+00 -5.31569E-10  1.0E-07
  3.500E-03  9.32891E-10  4.04487E-17  1.44445E+00 -5.72459E-10  1.0E-07
  3.750E-03  1.07092E-09  4.04487E-17  1.44445E+00 -6.13349E-10  1.0E-07
  4.000E-03  1.21847E-09  4.04487E-17  1.44445E+00 -6.54239E-10  1.0E-07
  4.250E-03  1.37554E-09  4.04487E-17  1.44445E+00 -6.95129E-10  1.0E-07
  4.500E-03  1.54213E-09  4.04487E-17  1.44445E+00 -7.36018E-10  1.0E-07
  4.750E-03  1.71823E-09  4.04487E-17  1.44445E+00 -7.76908E-10  1.0E-07
  5.000E-03  1.90386E-09  4.04487E-17  1.44445E+00 -8.17798E-10  1.0E-07
  5.250E-03  2.09900E-09  4.04487E-17  1.44445E+00 -8.58688E-10  1.0E-07
  5.500E-03  2.30367E-09  4.04487E-17  1.44445E+00 -8.99578E-10  1.0E-07
  5.750E-03  2.51785E-09  4.04487E-17  1.44445E+00 -9.40468E-10  1.0E-07
  6.000E-03  2.74156E-09  4.04487E-17  1.44445E+00 -9.81358E-10  1.0E-07
  6.250E-03  2.97478E-09  4.04487E-17  1.44445E+00 -1.02225E-09  1.0E-07
  6.500E-03  3.21752E-09  4.04487E-17  1.44445E+00 -1.06314E-09  1.0E-07
  6.750E-03  3.46978E-09  4.04487E-17  1.44445E+00 -1.10403E-09  1.0E-07
  7.000E-03  3.73156E-09  4.04487E-17  1.44445E+00 -1.14492E-09  1.0E-07
  7.250E-03  4.00286E-09  4.04487E-17  1.44445E+00 -1.18581E-09  1.0E-07
  7.500E-03  4.28368E-09  4.04487E-17  1.44445E+00 -1.22670E-09  1.0E-07
  7.750E-03  4.57402E-09  4.04487E-17  1.44445E+00 -1.26759E-09  1.0E-07
  8.000E-03  4.87388E-09  4.04487E-17  1.44445E+00 -1.30848E-09  1.0E-07
  8.250E-03  5.18326E-09  4.04487E-17  1.44445E+00 -1.34937E-09  1.0E-07
  8.500E-03  5.50215E-09  4.04487E-17  1.44445E+00 -1.39026E-09  1.0E-07
  8.750E-03  5.83057E-09  4.04487E-17  1.44445E+00 -1.43115E-09  1.0E-07
  9.000E-03  6.16850E-09  4.04487E-17  1.44445E+00 -1.47204E-09  1.0E-07
  9.250E-03  6.51596E-09  4.04487E-17  1.44445E+00 -1.51293E-09  1.0E-07
  9.500E-03  6.87293E-09  4.04487E-17  1.44445E+00 -1.55382E-09  1.0E-07
  9.750E-03  7.23942E-09  4.04487E-17  1.44445E+00 -1.59471E-09  1.0E-07
  1.000E-02  7.61544E-09  4.04487E-17  1.44445E+00 -1.63560E-09  1.0E-07
  1.250E-02  1.18991E-08  4.04487E-17  1.44445E+00 -2.04450E-09  1.0E-07
  1.500E-02  1.71347E-08  4.04487E-17  1.44445E+00 -2.45340E-09  1.0E-07
  1.750E-02  2.33223E-08  4.04487E-17  1.44445E+00 -2.86229E-09  1.0E-07
  2.000E-02  3.04617E-08  4.04487E-17  1.44445E+00 -3.27119E-09  1.0E-07
  2.250E-02  3.85531E-08  4.04487E-17  1.44445E+00 -3.68009E-09  1.0E-07
  2.500E-02  4.75965E-08  4.04487E-17  1.44445E+00 -4.08899E-09  1.0E-07
  2.750E-02  5.75917E-08  4.04487E-17  1.44445E+00 -4.49789E-09  1.0E-07
  3.000E-02  6.85389E-08  4.04487E-17  1.44445E+00 -4.90679E-09  1.0E-07
  3.250E-02  8.04380E-08  4.04487E-17  1.44445E+00 -5.31569E-09  1.0E-07
  3.500E-02  9.32891E-08  4.04487E-17  1.44445E+00 -5.72459E-09  1.0E-07
  3.750E-02  1.07092E-07  4.04487E-17  1.44445E+00 -6.13349E-09  1.0E-07
  4.000E-02  1.21847E-07  4.04487E-17  1.44445E+00 -6.54239E-09  1.0E-07
  4.250E-02  1.37554E-07  4.04486E-17  1.44445E+00 -6.95129E-09  1.0E-07
  4.500E-02  1.54213E-07  4.04486E-17  1.44445E+00 -7.36019E-09  1.0E-07
  4.750E-02  1.71823E-07  4.04486E-17  1.44445E+00 -7.76909E-09  1.0E-07
  5.000E-02  1.90386E-07  4.04486E-17  1.44445E+00 -8.17800E-09  1.0E-07
  5.250E-02  2.09900E-07  4.04486E-17  1.44445E+00 -8.58690E-09  1.0E-07
  5.500E-02  2.30367E-07  4.04486E-17  1.44445E+00 -8.99580E-09  1.0E-07
  5.750E-02  2.51785E-07  4.04486E-17  1.44444E+00 -9.40470E-09  1.0E-07
  6.000E-02  2.74156E-07  4.04486E-17  1.44444E+00 -9.81360E-09  1.0E-07
  6.250E-02  2.97478E-07  4.04486E-17  1.44444E+00 -1.02225E-08  1.0E-07
  6.500E-02  3.21752E-07  4.04485E-17  1.44444E+00 -1.06314E-08  1.0E-07
  6.750E-02  3.46978E-07  4.04485E-17  1.44444E+00 -1.10403E-08  1.0E-07
  7.000E-02  3.73156E-07  4.04485E-17  1.44444E+00 -1.14492E-08  1.0E-07
  7.250E-02  4.00286E-07  4.04485E-17  1.44444E+00 -1.18581E-08  1.0E-07
  7.500E-02  4.28368E-07  4.04485E-17  1.44444E+00 -1.22670E-08  1.0E-07
  7.750E-02  4.57402E-07  4.04485E-17  1.44444E+00 -1.26759E-08  1.0E-07
  8.000E-02  4.87388E-07  4.04484E-17  1.44444E+00 -1.30848E-08  1.0E-07
  8.250E-02  5.18325E-07  4.04484E-17  1.44444E+00 -1.34937E-08  1.0E-07
  8.500E-02  5.50215E-07  4.04484E-17  1.44444E+00 -1.39026E-08  1.0E-07
  8.750E-02  5.83057E-07  4.04484E-17  1.44444E+00 -1.43115E-08  1.0E-07
  9.000E-02  6.16850E-07  4.04484E-17  1.44444E+00 -1.47204E-08  1.0E-07
  9.250E-02  6.51596E-07  4.04483E-17  1.44444E+00 -1.51293E-08  1.0E-07
  9.500E-02  6.87293E-07  4.04483E-17  1.44444E+00 -1.55383E-08  1.0E-07
  9.750E-02  7.23942E-07  4.04483E-17  1.44443E+00 -1.59472E-08  1.0E-07
  1.000E-01  7.61543E-07  4.04483E-17  1.44443E+00 -1.63561E-08  1.0E-07
  1.250E-01  1.18991E-06  4.04480E-17  1.44442E+00 -2.04452E-08  1.0E-07
  1.500E-01  1.71347E-06  4.04477E-17  1.44441E+00 -2.45343E-08  1.0E-07
  1.750E-01  2.33223E-06  4.04473E-17  1.44440E+00 -2.86235E-08  1.0E-07
  2.000E-01  3.04617E-06  4.04469E-17  1.44438E+00 -3.27127E-08  1.0E-07
  2.250E-01  3.85531E-06  4.04464E-17  1.44437E+00 -3.68021E-08  1.0E-07
  2.500E-01  4.75964E-06  4.04459E-17  1.44435E+00 -4.08915E-08  1.0E-07
  2.750E-01  5.75916E-06  4.04453E-17  1.44433E+00 -4.49810E-08  1.0E-07
  3.000E-01  6.85388E-06  4.04446E-17  1.44430E+00 -4.90706E-08  1.0E-07
  3.250E-01  8.04378E-06  4.04439E-17  1.44428E+00 -5.31603E-08  1.0E-07
  3.500E-01  9.32888E-06  4.04431E-17  1.44425E+00 -5.72502E-08  1.0E-07
  3.750E-01  1.07092E-05  4.04423E-17  1.44422E+00 -6.13401E-08  1.0E-07
  4.000E-01  1.21846E-05  4.04414E-17  1.44419E+00 -6.54302E-08  1.0E-07
  4.250E-01  1.37553E-05  4.04404E-17  1.44415E+00 -6.95205E-08  1.0E-07
  4.500E-01  1.54212E-05  4.04394E-17  1.44412E+00 -7.36109E-08  1.0E-07
  4.750E-01  1.71822E-05  4.04384E-17  1.44408E+00 -7.77015E-08  1.0E-07
  5.000E-01  1.90385E-05  4.04372E-17  1.44404E+00 -8.17923E-08  1.0E-07
  5.250E-01  2.09899E-05  4.04361E-17  1.44400E+00 -8.58833E-08  1.0E-07
  5.500E-01  2.30365E-05  4.04348E-17  1.44395E+00 -8.99744E-08  1.0E-07
  5.750E-01  2.51783E-05  4.04335E-17  1.44391E+00 -9.40658E-08  1.0E-07
  6.000E-01  2.74153E-05  4.04322E-17  1.44386E+00 -9.81573E-08  1.0E-07
  6.250E-01  2.97475E-05  4.04308E-17  1.44381E+00 -1.02249E-07  1.0E-07
  6.500E-01  3.21749E-05  4.04293E-17  1.44376E+00 -1.06341E-07  1.0E-07
  6.750E-01  3.46974E-05  4.04278E-17  1.44370E+00 -1.10433E-07  1.0E-07
  7.000E-01  3.73152E-05  4.04262E-17  1.44365E+00 -1.14526E-07  1.0E-07
  7.250E-01  4.00281E-05  4.04246E-17  1.44359E+00 -1.18619E-07  1.0E-07
  7.500E-01  4.28362E-05  4.04229E-17  1.44353E+00 -1.22712E-07  1.0E-07
  7.750E-01  4.57395E-05  4.04211E-17  1.44346E+00 -1.26805E-07  1.0E-07
  8.000E-01  4.87380E-05  4.04193E-17  1.44340E+00 -1.30899E-07  1.0E-07
  8.250E-01  5.18317E-05  4.04174E-17  1.44333E+00 -1.34993E-07  1.0E-07
  8.500E-01  5.50205E-05  4.04155E-17  1.44326E+00 -1.39087E-07  1.0E-07
  8.750E-01  5.83045E-05  4.04135E-17  1.44319E+00 -1.43182E-07  1.0E-07
  9.000E-01  6.16838E-05  4.04115E-17  1.44312E+00 -1.47276E-07  1.0E-07
  9.250E-01  6.51582E-05  4.04094E-17  1.44305E+00 -1.51372E-07  1.0E-07
  9.500E-01  6.87277E-05  4.04073E-17  1.44297E+00 -1.55467E-07  1.0E-07
  9.750E-01  7.23925E-05  4.04050E-17  1.44289E+00 -1.59563E-07  1.0E-07
  1.000E+00  7.61524E-05  4.04028E-17  1.44281E+00 -1.63659E-07  1.0E-07
  1.100E+00  9.21439E-05  4.03931E-17  1.44247E+00 -1.80048E-07  1.0E-07
  1.200E+00  1.09658E-04  4.03826E-17  1.44209E+00 -1.96444E-07  1.0E-07
  1.300E+00  1.28695E-04  4.03711E-17  1.44168E+00 -2.12847E-07  1.0E-07
  1.400E+00  1.49255E-04  4.03587E-17  1.44124E+00 -2.29257E-07  1.0E-07
  1.500E+00  1.71338E-04  4.03455E-17  1.44076E+00 -2.45676E-07  1.0E-07
  1.600E+00  1.94942E-04  4.03313E-17  1.44026E+00 -2.62104E-07  1.0E-07
  1.700E+00  2.20070E-04  4.03161E-17  1.43972E+00 -2.78541E-07  1.0E-07
  1.800E+00  2.46720E-04  4.03001E-17  1.43914E+00 -2.94989E-07  1.0E-07
  1.900E+00  2.74892E-04  4.02832E-17  1.43854E+00 -3.11447E-07  1.0E-07
  2.000E+00  3.04586E-04  4.02654E-17  1.43790E+00 -3.27917E-07  1.0E-07
  2.100E+00  3.35803E-04  4.02467E-17  1.43723E+00 -3.44399E-07  1.0E-07
  2.200E+00  3.68542E-04  4.02270E-17  1.43653E+00 -3.60893E-07  1.0E-07
  2.300E+00  4.02802E-04  4.02065E-17  1.43580E+00 -3.77401E-07  1.0E-07
  2.400E+00  4.38585E-04  4.01851E-17  1.43504E+00 -3.93922E-07  1.0E-07
  2.500E+00  4.75889E-04  4.01628E-17  1.43424E+00 -4.10458E-07  1.0E-07
  2.600E+00  5.14715E-04  4.01396E-17  1.43341E+00 -4.27008E-07  1.0E-07
  2.700E+00  5.55063E-04  4.01155E-17  1.43255E+00 -4.43575E-07  1.0E-07
  2.800E+00  5.96931E-04  4.00905E-17  1.43166E+00 -4.60157E-07  1.0E-07
  2.900E+00  6.40321E-04  4.00646E-17  1.43073E+00 -4.76756E-07  1.0E-07
  3.000E+00  6.85233E-04  4.00378E-17  1.42978E+00 -4.93373E-07  1.0E-07
  3.100E+00  7.31665E-04  4.00102E-17  1.42879E+00 -5.10007E-07  1.0E-07
  3.200E+00  7.79618E-04  3.99817E-17  1.42777E+00 -5.26661E-07  1.0E-07
  3.300E+00  8.29092E-04  3.99523E-17  1.42672E+00 -5.43333E-07  1.0E-07
  3.400E+00  8.80086E-04  3.99221E-17  1.42564E+00 -5.60025E-07  1.0E-07
  3.500E+00  9.32601E-04  3.98909E-17  1.42453E+00 -5.76737E-07  1.0E-07
  3.600E+00  9.86636E-04  3.98589E-17  1.42339E+00 -5.93471E-07  1.0E-07
  3.700E+00  1.04219E-03  3.98261E-17  1.42221E+00 -6.10226E-07  1.0E-07
  3.800E+00  1.09927E-03  3.97924E-17  1.42101E+00 -6.27003E-07  1.0E-07
  3.900E+00  1.15786E-03  3.97578E-17  1.41978E+00 -6.43803E-07  1.0E-07
  4.000E+00  1.21797E-03  3.97224E-17  1.41851E+00 -6.60627E-07  1.0E-07
  4.100E+00  1.27961E-03  3.96861E-17  1.41722E+00 -6.77474E-07  1.0E-07
  4.200E+00  1.34276E-03  3.96489E-17  1.41589E+00 -6.94347E-07  1.0E-07
  4.300E+00  1.40743E-03  3.96110E-17  1.41453E+00 -7.11244E-07  1.0E-07
  4.400E+00  1.47362E-03  3.95722E-17  1.41315E+00 -7.28167E-07  1.0E-07
  4.500E+00  1.54133E-03  3.95325E-17  1.41173E+00 -7.45117E-07  1.0E-07
  4.600E+00  1.61056E-03  3.94920E-17  1.41029E+00 -7.62093E-07  1.0E-07
  4.700E+00  1.68131E-03  3.94507E-17  1.40881E+00 -7.79098E-07  1.0E-07
  4.800E+00  1.75357E-03  3.94086E-17  1.40731E+00 -7.96130E-07  1.0E-07
  4.900E+00  1.82735E-03  3.93656E-17  1.40577E+00 -8.13192E-07  1.0E-07
  5.000E+00  1.90265E-03  3.93219E-17  1.40421E+00 -8.30283E-07  1.0E-07
  5.100E+00  1.97947E-03  3.92773E-17  1.40262E+00 -8.47403E-07  1.0E-07
  5.200E+00  2.05780E-03  3.92319E-17  1.40100E+00 -8.64555E-07  1.0E-07
  5.300E+00  2.13765E-03  3.91857E-17  1.39935E+00 -8.81738E-07  1.0E-07
  5.400E+00  2.21902E-03  3.91387E-17  1.39767E+00 -8.98953E-07  1.0E-07
  5.500E+00  2.30190E-03  3.90909E-17  1.39596E+00 -9.16200E-07  1.0E-07
  5.600E+00  2.38630E-03  3.90423E-17  1.39423E+00 -9.33480E-07  1.0E-07
  5.700E+00  2.47222E-03  3.89929E-17  1.39246E+00 -9.50795E-07  1.0E-07
  5.800E+00  2.55965E-03  3.89428E-17  1.39067E+00 -9.68143E-07  1.0E-07
  5.900E+00  2.64859E-03  3.88918E-17  1.38885E+00 -9.85526E-07  1.0E-07
  6.000E+00  2.73905E-03  3.88401E-17  1.38701E+00 -1.00295E-06  1.0E-07
  6.100E+00  2.83103E-03  3.87876E-17  1.38513E+00 -1.02040E-06  1.0E-07
  6.200E+00  2.92452E-03  3.87344E-17  1.38323E+00 -1.03789E-06  1.0E-07
  6.300E+00  3.01952E-03  3.86804E-17  1.38130E+00 -1.05542E-06  1.0E-07
  6.400E+00  3.11604E-03  3.86256E-17  1.37935E+00 -1.07299E-06  1.0E-07
  6.500E+00  3.21407E-03  3.85701E-17  1.37736E+00 -1.09059E-06  1.0E-07
  6.600E+00  3.31362E-03  3.85139E-17  1.37536E+00 -1.10824E-06  1.0E-07
  6.700E+00  3.41468E-03  3.84569E-17  1.37332E+00 -1.12593E-06  1.0E-07
  6.800E+00  3.51725E-03  3.83992E-17  1.37126E+00 -1.14365E-06  1.0E-07
  6.900E+00  3.62133E-03  3.83407E-17  1.36917E+00 -1.16142E-06  1.0E-07
  7.000E+00  3.72692E-03  3.82815E-17  1.36706E+00 -1.17923E-06  1.0E-07
  7.100E+00  3.83403E-03  3.82216E-17  1.36492E+00 -1.19708E-06  1.0E-07
  7.200E+00  3.94265E-03  3.81610E-17  1.36275E+00 -1.21497E-06  1.0E-07
  7.300E+00  4.05278E-03  3.80997E-17  1.36056E+00 -1.23291E-06  1.0E-07
  7.400E+00  4.16442E-03  3.80376E-17  1.35835E+00 -1.25089E-06  1.0E-07
  7.500E+00  4.27757E-03  3.79749E-17  1.35611E+00 -1.26891E-06  1.0E-07
  7.600E+00  4.39223E-03  3.79115E-17  1.35384E+00 -1.28698E-06  1.0E-07
  7.700E+00  4.50840E-03  3.78474E-17  1.35156E+00 -1.30510E-06  1.0E-07
  7.800E+00  4.62608E-03  3.77826E-17  1.34924E+00 -1.32327E-06  1.0E-07
  7.900E+00  4.74527E-03  3.77172E-17  1.34690E+00 -1.34148E-06  1.0E-07
  8.000E+00  4.86597E-03  3.76510E-17  1.34454E+00 -1.35973E-06  1.0E-07
  8.100E+00  4.98817E-03  3.75842E-17  1.34216E+00 -1.37804E-06  1.0E-07
  8.200E+00  5.11188E-03  3.75168E-17  1.33975E+00 -1.39640E-06  1.0E-07
  8.300E+00  5.23711E-03  3.74487E-17  1.33732E+00 -1.41481E-06  1.0E-07
  8.400E+00  5.36383E-03  3.73799E-17  1.33486E+00 -1.43326E-06  1.0E-07
  8.500E+00  5.49207E-03  3.73105E-17  1.33238E+00 -1.45177E-06  1.0E-07
  8.600E+00  5.62181E-03  3.72405E-17  1.32988E+00 -1.47033E-06  1.0E-07
  8.700E+00  5.75306E-03  3.71699E-17  1.32736E+00 -1.48894E-06  1.0E-07
  8.800E+00  5.88581E-03  3.70986E-17  1.32481E+00 -1.50760E-06  1.0E-07
  8.900E+00  6.02007E-03  3.70267E-17  1.32225E+00 -1.52632E-06  1.0E-07
  9.000E+00  6.15583E-03  3.69542E-17  1.31966E+00 -1.54509E-06  1.0E-07
  9.100E+00  6.29310E-03  3.68811E-17  1.31705E+00 -1.56392E-06  1.0E-07
  9.200E+00  6.43187E-03  3.68074E-17  1.31441E+00 -1.58280E-06  1.0E-07
  9.300E+00  6.57214E-03  3.67331E-17  1.31176E+00 -1.60174E-06  1.0E-07
  9.400E+00  6.71392E-03  3.66582E-17  1.30909E+00 -1.62073E-06  1.0E-07
  9.500E+00  6.85720E-03  3.65827E-17  1.30639E+00 -1.63978E-06  1.0E-07
  9.600E+00  7.00198E-03  3.65067E-17  1.30368E+00 -1.65889E-06  1.0E-07
  9.700E+00  7.14827E-03  3.64300E-17  1.30094E+00 -1.67806E-06  1.0E-07
  9.800E+00  7.29605E-03  3.63529E-17  1.29818E+00 -1.69729E-06  1.0E-07
  9.900E+00  7.44534E-03  3.62751E-17  1.29541E+00 -1.71658E-06  1.0E-07
  1.000E+01  7.59612E-03  3.61969E-17  1.29261E+00 -1.73592E-06  1.0E-07
  1.025E+01  7.97965E-03  3.59988E-17  1.28554E+00 -1.78456E-06  1.0E-07
  1.050E+01  8.37255E-03  3.57974E-17  1.27835E+00 -1.83358E-06  1.0E-07
  1.075E+01  8.77480E-03  3.55929E-17  1.27105E+00 -1.88301E-06  1.0E-07
  1.100E+01  9.18641E-03  3.53853E-17  1.26363E+00 -1.93285E-06  1.0E-07
  1.125E+01  9.60736E-03  3.51746E-17  1.25611E+00 -1.98311E-06  1.0E-07
  1.150E+01  1.00376E-02  3.49611E-17  1.24848E+00 -2.03380E-06  1.0E-07
  1.175E+01  1.04773E-02  3.47448E-17  1.24076E+00 -2.08493E-06  1.0E-07
  1.200E+01  1.09262E-02  3.45258E-17  1.23294E+00 -2.13651E-06  1.0E-07
  1.225E+01  1.13844E-02  3.43042E-17  1.22502E+00 -2.18855E-06  1.0E-07
  1.250E+01  1.18520E-02  3.40801E-17  1.21702E+00 -2.24106E-06  1.0E-07
  1.275E+01  1.23288E-02  3.38537E-17  1.20894E+00 -2.29406E-06  1.0E-07
  1.300E+01  1.28150E-02  3.36249E-17  1.20077E+00 -2.34754E-06  1.0E-07
  1.325E+01  1.33104E-02  3.33940E-17  1.19252E+00 -2.40152E-06  1.0E-07
  1.350E+01  1.38150E-02  3.31610E-17  1.18420E+00 -2.45602E-06  1.0E-07
  1.375E+01  1.43290E-02  3.29261E-17  1.17581E+00 -2.51104E-06  1.0E-07
  1.400E+01  1.48521E-02  3.26893E-17  1.16735E+00 -2.56658E-06  1.0E-07
  1.425E+01  1.53845E-02  3.24506E-17  1.15883E+00 -2.62267E-06  1.0E-07
  1.450E+01  1.59262E-02  3.22104E-17  1.15025E+00 -2.67931E-06  1.0E-07
  1.475E+01  1.64770E-02  3.19685E-17  1.14162E+00 -2.73651E-06  1.0E-07
  1.500E+01  1.70371E-02  3.17252E-17  1.13293E+00 -2.79429E-06  1.0E-07
  1.525E+01  1.76063E-02  3.14805E-17  1.12419E+00 -2.85264E-06  1.0E-07
  1.550E+01  1.81848E-02  3.12345E-17  1.11540E+00 -2.91159E-06  1.0E-07
