 #  Scattering amplitudes (in cm)      MU=(1-cos(TH))/2
 #  Z =   1,   projectile: electron
 #  Kinetic energy = 2.64000E+02 eV
 #
 # TH (deg)      MU          Re(F)        Im(F)        Re(G)        Im(G)
 #--------------------------------------------------------------------------
  0.000E+00  0.00000E+00  5.52923E-09  7.52476E-10  0.00000E+00  0.00000E+00
  1.000E-04  7.61557E-13  5.52923E-09  7.52476E-10  2.58178E-18  3.21068E-19
  1.250E-04  1.18994E-12  5.52923E-09  7.52476E-10  3.22722E-18  4.01335E-19
  1.500E-04  1.71346E-12  5.52923E-09  7.52476E-10  3.87267E-18  4.81602E-19
  1.750E-04  2.33225E-12  5.52923E-09  7.52476E-10  4.51811E-18  5.61869E-19
  2.000E-04  3.04617E-12  5.52923E-09  7.52476E-10  5.16356E-18  6.42135E-19
  2.250E-04  3.85530E-12  5.52923E-09  7.52476E-10  5.80900E-18  7.22402E-19
  2.500E-04  4.75964E-12  5.52923E-09  7.52476E-10  6.45445E-18  8.02669E-19
  2.750E-04  5.75917E-12  5.52923E-09  7.52476E-10  7.09989E-18  8.82936E-19
  3.000E-04  6.85391E-12  5.52923E-09  7.52476E-10  7.74534E-18  9.63203E-19
  3.250E-04  8.04379E-12  5.52923E-09  7.52476E-10  8.39078E-18  1.04347E-18
  3.500E-04  9.32893E-12  5.52923E-09  7.52476E-10  9.03622E-18  1.12374E-18
  3.750E-04  1.07092E-11  5.52923E-09  7.52476E-10  9.68167E-18  1.20400E-18
  4.000E-04  1.21847E-11  5.52923E-09  7.52476E-10  1.03271E-17  1.28427E-18
  4.250E-04  1.37554E-11  5.52923E-09  7.52476E-10  1.09726E-17  1.36454E-18
  4.500E-04  1.54213E-11  5.52923E-09  7.52476E-10  1.16180E-17  1.44480E-18
  4.750E-04  1.71823E-11  5.52923E-09  7.52476E-10  1.22634E-17  1.52507E-18
  5.000E-04  1.90386E-11  5.52923E-09  7.52476E-10  1.29089E-17  1.60534E-18
  5.250E-04  2.09900E-11  5.52923E-09  7.52476E-10  1.35543E-17  1.68561E-18
  5.500E-04  2.30367E-11  5.52923E-09  7.52476E-10  1.41998E-17  1.76587E-18
  5.750E-04  2.51785E-11  5.52923E-09  7.52476E-10  1.48452E-17  1.84614E-18
  6.000E-04  2.74156E-11  5.52923E-09  7.52476E-10  1.54907E-17  1.92641E-18
  6.250E-04  2.97478E-11  5.52923E-09  7.52476E-10  1.61361E-17  2.00667E-18
  6.500E-04  3.21752E-11  5.52923E-09  7.52476E-10  1.67816E-17  2.08694E-18
  6.750E-04  3.46979E-11  5.52923E-09  7.52476E-10  1.74270E-17  2.16721E-18
  7.000E-04  3.73157E-11  5.52923E-09  7.52476E-10  1.80724E-17  2.24747E-18
  7.250E-04  4.00286E-11  5.52923E-09  7.52476E-10  1.87179E-17  2.32774E-18
  7.500E-04  4.28368E-11  5.52923E-09  7.52476E-10  1.93633E-17  2.40801E-18
  7.750E-04  4.57402E-11  5.52923E-09  7.52476E-10  2.00088E-17  2.48827E-18
  8.000E-04  4.87388E-11  5.52923E-09  7.52476E-10  2.06542E-17  2.56854E-18
  8.250E-04  5.18325E-11  5.52923E-09  7.52476E-10  2.12997E-17  2.64881E-18
  8.500E-04  5.50215E-11  5.52923E-09  7.52476E-10  2.19451E-17  2.72908E-18
  8.750E-04  5.83057E-11  5.52923E-09  7.52476E-10  2.25906E-17  2.80934E-18
  9.000E-04  6.16850E-11  5.52923E-09  7.52476E-10  2.32360E-17  2.88961E-18
  9.250E-04  6.51595E-11  5.52923E-09  7.52476E-10  2.38815E-17  2.96988E-18
  9.500E-04  6.87293E-11  5.52923E-09  7.52476E-10  2.45269E-17  3.05014E-18
  9.750E-04  7.23943E-11  5.52923E-09  7.52476E-10  2.51723E-17  3.13041E-18
  1.000E-03  7.61544E-11  5.52923E-09  7.52476E-10  2.58178E-17  3.21068E-18
  1.250E-03  1.18991E-10  5.52923E-09  7.52476E-10  3.22722E-17  4.01335E-18
  1.500E-03  1.71347E-10  5.52923E-09  7.52476E-10  3.87267E-17  4.81602E-18
  1.750E-03  2.33223E-10  5.52923E-09  7.52476E-10  4.51811E-17  5.61869E-18
  2.000E-03  3.04617E-10  5.52923E-09  7.52476E-10  5.16356E-17  6.42135E-18
  2.250E-03  3.85531E-10  5.52923E-09  7.52476E-10  5.80900E-17  7.22402E-18
  2.500E-03  4.75965E-10  5.52923E-09  7.52476E-10  6.45445E-17  8.02669E-18
  2.750E-03  5.75917E-10  5.52923E-09  7.52476E-10  7.09989E-17  8.82936E-18
  3.000E-03  6.85389E-10  5.52923E-09  7.52476E-10  7.74534E-17  9.63203E-18
  3.250E-03  8.04380E-10  5.52923E-09  7.52476E-10  8.39078E-17  1.04347E-17
  3.500E-03  9.32891E-10  5.52923E-09  7.52476E-10  9.03622E-17  1.12374E-17
  3.750E-03  1.07092E-09  5.52923E-09  7.52476E-10  9.68167E-17  1.20400E-17
  4.000E-03  1.21847E-09  5.52923E-09  7.52476E-10  1.03271E-16  1.28427E-17
  4.250E-03  1.37554E-09  5.52923E-09  7.52476E-10  1.09726E-16  1.36454E-17
  4.500E-03  1.54213E-09  5.52923E-09  7.52476E-10  1.16180E-16  1.44480E-17
  4.750E-03  1.71823E-09  5.52923E-09  7.52476E-10  1.22634E-16  1.52507E-17
  5.000E-03  1.90386E-09  5.52923E-09  7.52476E-10  1.29089E-16  1.60534E-17
  5.250E-03  2.09900E-09  5.52923E-09  7.52476E-10  1.35543E-16  1.68561E-17
  5.500E-03  2.30367E-09  5.52923E-09  7.52476E-10  1.41998E-16  1.76587E-17
  5.750E-03  2.51785E-09  5.52923E-09  7.52476E-10  1.48452E-16  1.84614E-17
  6.000E-03  2.74156E-09  5.52923E-09  7.52476E-10  1.54907E-16  1.92641E-17
  6.250E-03  2.97478E-09  5.52923E-09  7.52476E-10  1.61361E-16  2.00667E-17
  6.500E-03  3.21752E-09  5.52923E-09  7.52476E-10  1.67816E-16  2.08694E-17
  6.750E-03  3.46978E-09  5.52923E-09  7.52476E-10  1.74270E-16  2.16721E-17
  7.000E-03  3.73156E-09  5.52923E-09  7.52476E-10  1.80724E-16  2.24747E-17
  7.250E-03  4.00286E-09  5.52923E-09  7.52476E-10  1.87179E-16  2.32774E-17
  7.500E-03  4.28368E-09  5.52923E-09  7.52476E-10  1.93633E-16  2.40801E-17
  7.750E-03  4.57402E-09  5.52923E-09  7.52476E-10  2.00088E-16  2.48827E-17
  8.000E-03  4.87388E-09  5.52923E-09  7.52476E-10  2.06542E-16  2.56854E-17
  8.250E-03  5.18326E-09  5.52923E-09  7.52476E-10  2.12997E-16  2.64881E-17
  8.500E-03  5.50215E-09  5.52923E-09  7.52476E-10  2.19451E-16  2.72908E-17
  8.750E-03  5.83057E-09  5.52923E-09  7.52476E-10  2.25906E-16  2.80934E-17
  9.000E-03  6.16850E-09  5.52923E-09  7.52476E-10  2.32360E-16  2.88961E-17
  9.250E-03  6.51596E-09  5.52923E-09  7.52476E-10  2.38814E-16  2.96988E-17
  9.500E-03  6.87293E-09  5.52923E-09  7.52476E-10  2.45269E-16  3.05014E-17
  9.750E-03  7.23942E-09  5.52923E-09  7.52476E-10  2.51723E-16  3.13041E-17
  1.000E-02  7.61544E-09  5.52923E-09  7.52476E-10  2.58178E-16  3.21068E-17
  1.250E-02  1.18991E-08  5.52923E-09  7.52476E-10  3.22722E-16  4.01335E-17
  1.500E-02  1.71347E-08  5.52923E-09  7.52475E-10  3.87267E-16  4.81602E-17
  1.750E-02  2.33223E-08  5.52923E-09  7.52475E-10  4.51811E-16  5.61868E-17
  2.000E-02  3.04617E-08  5.52923E-09  7.52475E-10  5.16355E-16  6.42135E-17
  2.250E-02  3.85531E-08  5.52923E-09  7.52475E-10  5.80899E-16  7.22402E-17
  2.500E-02  4.75965E-08  5.52923E-09  7.52475E-10  6.45444E-16  8.02669E-17
  2.750E-02  5.75917E-08  5.52922E-09  7.52475E-10  7.09988E-16  8.82936E-17
  3.000E-02  6.85389E-08  5.52922E-09  7.52475E-10  7.74532E-16  9.63203E-17
  3.250E-02  8.04380E-08  5.52922E-09  7.52475E-10  8.39076E-16  1.04347E-16
  3.500E-02  9.32891E-08  5.52922E-09  7.52475E-10  9.03620E-16  1.12374E-16
  3.750E-02  1.07092E-07  5.52922E-09  7.52475E-10  9.68164E-16  1.20400E-16
  4.000E-02  1.21847E-07  5.52921E-09  7.52475E-10  1.03271E-15  1.28427E-16
  4.250E-02  1.37554E-07  5.52921E-09  7.52475E-10  1.09725E-15  1.36454E-16
  4.500E-02  1.54213E-07  5.52921E-09  7.52475E-10  1.16179E-15  1.44480E-16
  4.750E-02  1.71823E-07  5.52920E-09  7.52475E-10  1.22634E-15  1.52507E-16
  5.000E-02  1.90386E-07  5.52920E-09  7.52475E-10  1.29088E-15  1.60534E-16
  5.250E-02  2.09900E-07  5.52920E-09  7.52475E-10  1.35543E-15  1.68560E-16
  5.500E-02  2.30367E-07  5.52919E-09  7.52475E-10  1.41997E-15  1.76587E-16
  5.750E-02  2.51785E-07  5.52919E-09  7.52474E-10  1.48451E-15  1.84614E-16
  6.000E-02  2.74156E-07  5.52919E-09  7.52474E-10  1.54905E-15  1.92640E-16
  6.250E-02  2.97478E-07  5.52918E-09  7.52474E-10  1.61360E-15  2.00667E-16
  6.500E-02  3.21752E-07  5.52918E-09  7.52474E-10  1.67814E-15  2.08694E-16
  6.750E-02  3.46978E-07  5.52918E-09  7.52474E-10  1.74268E-15  2.16720E-16
  7.000E-02  3.73156E-07  5.52917E-09  7.52474E-10  1.80722E-15  2.24747E-16
  7.250E-02  4.00286E-07  5.52917E-09  7.52474E-10  1.87177E-15  2.32774E-16
  7.500E-02  4.28368E-07  5.52916E-09  7.52474E-10  1.93631E-15  2.40800E-16
  7.750E-02  4.57402E-07  5.52916E-09  7.52474E-10  2.00085E-15  2.48827E-16
  8.000E-02  4.87388E-07  5.52915E-09  7.52473E-10  2.06539E-15  2.56853E-16
  8.250E-02  5.18325E-07  5.52915E-09  7.52473E-10  2.12993E-15  2.64880E-16
  8.500E-02  5.50215E-07  5.52914E-09  7.52473E-10  2.19448E-15  2.72907E-16
  8.750E-02  5.83057E-07  5.52914E-09  7.52473E-10  2.25902E-15  2.80933E-16
  9.000E-02  6.16850E-07  5.52913E-09  7.52473E-10  2.32356E-15  2.88960E-16
  9.250E-02  6.51596E-07  5.52913E-09  7.52473E-10  2.38810E-15  2.96986E-16
  9.500E-02  6.87293E-07  5.52912E-09  7.52473E-10  2.45264E-15  3.05013E-16
  9.750E-02  7.23942E-07  5.52911E-09  7.52472E-10  2.51718E-15  3.13040E-16
  1.000E-01  7.61543E-07  5.52911E-09  7.52472E-10  2.58172E-15  3.21066E-16
  1.250E-01  1.18991E-06  5.52904E-09  7.52470E-10  3.22711E-15  4.01332E-16
  1.500E-01  1.71347E-06  5.52895E-09  7.52468E-10  3.87247E-15  4.81596E-16
  1.750E-01  2.33223E-06  5.52885E-09  7.52465E-10  4.51780E-15  5.61860E-16
  2.000E-01  3.04617E-06  5.52873E-09  7.52462E-10  5.16309E-15  6.42123E-16
  2.250E-01  3.85531E-06  5.52859E-09  7.52459E-10  5.80834E-15  7.22385E-16
  2.500E-01  4.75964E-06  5.52845E-09  7.52455E-10  6.45353E-15  8.02645E-16
  2.750E-01  5.75916E-06  5.52828E-09  7.52450E-10  7.09868E-15  8.82904E-16
  3.000E-01  6.85388E-06  5.52810E-09  7.52445E-10  7.74376E-15  9.63161E-16
  3.250E-01  8.04378E-06  5.52790E-09  7.52440E-10  8.38878E-15  1.04342E-15
  3.500E-01  9.32888E-06  5.52769E-09  7.52434E-10  9.03372E-15  1.12367E-15
  3.750E-01  1.07092E-05  5.52746E-09  7.52428E-10  9.67859E-15  1.20392E-15
  4.000E-01  1.21846E-05  5.52722E-09  7.52422E-10  1.03234E-14  1.28417E-15
  4.250E-01  1.37553E-05  5.52696E-09  7.52415E-10  1.09681E-14  1.36442E-15
  4.500E-01  1.54212E-05  5.52668E-09  7.52408E-10  1.16127E-14  1.44466E-15
  4.750E-01  1.71822E-05  5.52639E-09  7.52400E-10  1.22572E-14  1.52490E-15
  5.000E-01  1.90385E-05  5.52608E-09  7.52392E-10  1.29016E-14  1.60514E-15
  5.250E-01  2.09899E-05  5.52576E-09  7.52383E-10  1.35459E-14  1.68538E-15
  5.500E-01  2.30365E-05  5.52542E-09  7.52374E-10  1.41901E-14  1.76561E-15
  5.750E-01  2.51783E-05  5.52507E-09  7.52365E-10  1.48341E-14  1.84584E-15
  6.000E-01  2.74153E-05  5.52470E-09  7.52355E-10  1.54781E-14  1.92607E-15
  6.250E-01  2.97475E-05  5.52431E-09  7.52344E-10  1.61219E-14  2.00629E-15
  6.500E-01  3.21749E-05  5.52391E-09  7.52334E-10  1.67656E-14  2.08651E-15
  6.750E-01  3.46974E-05  5.52349E-09  7.52323E-10  1.74091E-14  2.16673E-15
  7.000E-01  3.73152E-05  5.52306E-09  7.52311E-10  1.80525E-14  2.24694E-15
  7.250E-01  4.00281E-05  5.52261E-09  7.52299E-10  1.86957E-14  2.32715E-15
  7.500E-01  4.28362E-05  5.52215E-09  7.52287E-10  1.93388E-14  2.40735E-15
  7.750E-01  4.57395E-05  5.52167E-09  7.52274E-10  1.99817E-14  2.48755E-15
  8.000E-01  4.87380E-05  5.52118E-09  7.52261E-10  2.06244E-14  2.56775E-15
  8.250E-01  5.18317E-05  5.52066E-09  7.52247E-10  2.12670E-14  2.64794E-15
  8.500E-01  5.50205E-05  5.52014E-09  7.52233E-10  2.19093E-14  2.72812E-15
  8.750E-01  5.83045E-05  5.51960E-09  7.52219E-10  2.25515E-14  2.80830E-15
  9.000E-01  6.16838E-05  5.51904E-09  7.52204E-10  2.31935E-14  2.88848E-15
  9.250E-01  6.51582E-05  5.51847E-09  7.52188E-10  2.38354E-14  2.96865E-15
  9.500E-01  6.87277E-05  5.51788E-09  7.52173E-10  2.44770E-14  3.04881E-15
  9.750E-01  7.23925E-05  5.51727E-09  7.52156E-10  2.51184E-14  3.12897E-15
  1.000E+00  7.61524E-05  5.51665E-09  7.52140E-10  2.57596E-14  3.20912E-15
  1.100E+00  9.21439E-05  5.51402E-09  7.52069E-10  2.83221E-14  3.52968E-15
  1.200E+00  1.09658E-04  5.51113E-09  7.51992E-10  3.08808E-14  3.85013E-15
  1.300E+00  1.28695E-04  5.50800E-09  7.51908E-10  3.34354E-14  4.17046E-15
  1.400E+00  1.49255E-04  5.50462E-09  7.51818E-10  3.59854E-14  4.49068E-15
  1.500E+00  1.71338E-04  5.50100E-09  7.51721E-10  3.85306E-14  4.81077E-15
  1.600E+00  1.94942E-04  5.49713E-09  7.51617E-10  4.10707E-14  5.13072E-15
  1.700E+00  2.20070E-04  5.49301E-09  7.51506E-10  4.36052E-14  5.45052E-15
  1.800E+00  2.46720E-04  5.48865E-09  7.51389E-10  4.61339E-14  5.77016E-15
  1.900E+00  2.74892E-04  5.48405E-09  7.51265E-10  4.86565E-14  6.08963E-15
  2.000E+00  3.04586E-04  5.47921E-09  7.51135E-10  5.11725E-14  6.40893E-15
  2.100E+00  3.35803E-04  5.47413E-09  7.50998E-10  5.36817E-14  6.72804E-15
  2.200E+00  3.68542E-04  5.46881E-09  7.50854E-10  5.61838E-14  7.04696E-15
  2.300E+00  4.02802E-04  5.46325E-09  7.50703E-10  5.86785E-14  7.36567E-15
  2.400E+00  4.38585E-04  5.45745E-09  7.50546E-10  6.11653E-14  7.68417E-15
  2.500E+00  4.75889E-04  5.45142E-09  7.50383E-10  6.36441E-14  8.00245E-15
  2.600E+00  5.14715E-04  5.44516E-09  7.50212E-10  6.61145E-14  8.32050E-15
  2.700E+00  5.55063E-04  5.43866E-09  7.50036E-10  6.85762E-14  8.63831E-15
  2.800E+00  5.96931E-04  5.43193E-09  7.49852E-10  7.10288E-14  8.95586E-15
  2.900E+00  6.40321E-04  5.42498E-09  7.49662E-10  7.34722E-14  9.27316E-15
  3.000E+00  6.85233E-04  5.41779E-09  7.49466E-10  7.59060E-14  9.59020E-15
  3.100E+00  7.31665E-04  5.41038E-09  7.49263E-10  7.83298E-14  9.90695E-15
  3.200E+00  7.79618E-04  5.40275E-09  7.49053E-10  8.07435E-14  1.02234E-14
  3.300E+00  8.29092E-04  5.39489E-09  7.48837E-10  8.31468E-14  1.05396E-14
  3.400E+00  8.80086E-04  5.38681E-09  7.48614E-10  8.55393E-14  1.08555E-14
  3.500E+00  9.32601E-04  5.37852E-09  7.48385E-10  8.79207E-14  1.11710E-14
  3.600E+00  9.86636E-04  5.37000E-09  7.48149E-10  9.02909E-14  1.14863E-14
  3.700E+00  1.04219E-03  5.36127E-09  7.47907E-10  9.26495E-14  1.18012E-14
  3.800E+00  1.09927E-03  5.35233E-09  7.47659E-10  9.49962E-14  1.21158E-14
  3.900E+00  1.15786E-03  5.34318E-09  7.47404E-10  9.73309E-14  1.24300E-14
  4.000E+00  1.21797E-03  5.33382E-09  7.47142E-10  9.96533E-14  1.27439E-14
  4.100E+00  1.27961E-03  5.32425E-09  7.46874E-10  1.01963E-13  1.30574E-14
  4.200E+00  1.34276E-03  5.31447E-09  7.46600E-10  1.04260E-13  1.33705E-14
  4.300E+00  1.40743E-03  5.30450E-09  7.46319E-10  1.06544E-13  1.36833E-14
  4.400E+00  1.47362E-03  5.29432E-09  7.46032E-10  1.08814E-13  1.39956E-14
  4.500E+00  1.54133E-03  5.28394E-09  7.45739E-10  1.11071E-13  1.43076E-14
  4.600E+00  1.61056E-03  5.27337E-09  7.45439E-10  1.13314E-13  1.46191E-14
  4.700E+00  1.68131E-03  5.26261E-09  7.45133E-10  1.15543E-13  1.49303E-14
  4.800E+00  1.75357E-03  5.25165E-09  7.44821E-10  1.17758E-13  1.52410E-14
  4.900E+00  1.82735E-03  5.24050E-09  7.44502E-10  1.19959E-13  1.55513E-14
  5.000E+00  1.90265E-03  5.22917E-09  7.44177E-10  1.22145E-13  1.58611E-14
  5.100E+00  1.97947E-03  5.21765E-09  7.43846E-10  1.24316E-13  1.61705E-14
  5.200E+00  2.05780E-03  5.20595E-09  7.43509E-10  1.26472E-13  1.64795E-14
  5.300E+00  2.13765E-03  5.19407E-09  7.43165E-10  1.28612E-13  1.67879E-14
  5.400E+00  2.21902E-03  5.18202E-09  7.42815E-10  1.30738E-13  1.70959E-14
  5.500E+00  2.30190E-03  5.16978E-09  7.42459E-10  1.32847E-13  1.74035E-14
  5.600E+00  2.38630E-03  5.15738E-09  7.42097E-10  1.34941E-13  1.77105E-14
  5.700E+00  2.47222E-03  5.14481E-09  7.41729E-10  1.37019E-13  1.80170E-14
  5.800E+00  2.55965E-03  5.13207E-09  7.41354E-10  1.39081E-13  1.83230E-14
  5.900E+00  2.64859E-03  5.11916E-09  7.40974E-10  1.41126E-13  1.86286E-14
  6.000E+00  2.73905E-03  5.10610E-09  7.40587E-10  1.43155E-13  1.89335E-14
  6.100E+00  2.83103E-03  5.09287E-09  7.40194E-10  1.45168E-13  1.92380E-14
  6.200E+00  2.92452E-03  5.07949E-09  7.39796E-10  1.47164E-13  1.95419E-14
  6.300E+00  3.01952E-03  5.06595E-09  7.39391E-10  1.49143E-13  1.98453E-14
  6.400E+00  3.11604E-03  5.05226E-09  7.38980E-10  1.51104E-13  2.01481E-14
  6.500E+00  3.21407E-03  5.03842E-09  7.38563E-10  1.53049E-13  2.04504E-14
  6.600E+00  3.31362E-03  5.02444E-09  7.38141E-10  1.54976E-13  2.07521E-14
  6.700E+00  3.41468E-03  5.01031E-09  7.37712E-10  1.56886E-13  2.10532E-14
  6.800E+00  3.51725E-03  4.99605E-09  7.37278E-10  1.58779E-13  2.13537E-14
  6.900E+00  3.62133E-03  4.98164E-09  7.36837E-10  1.60654E-13  2.16537E-14
  7.000E+00  3.72692E-03  4.96710E-09  7.36391E-10  1.62511E-13  2.19530E-14
  7.100E+00  3.83403E-03  4.95243E-09  7.35939E-10  1.64350E-13  2.22517E-14
  7.200E+00  3.94265E-03  4.93762E-09  7.35481E-10  1.66171E-13  2.25499E-14
  7.300E+00  4.05278E-03  4.92269E-09  7.35017E-10  1.67975E-13  2.28474E-14
  7.400E+00  4.16442E-03  4.90764E-09  7.34548E-10  1.69760E-13  2.31442E-14
  7.500E+00  4.27757E-03  4.89246E-09  7.34073E-10  1.71527E-13  2.34405E-14
  7.600E+00  4.39223E-03  4.87716E-09  7.33592E-10  1.73276E-13  2.37361E-14
  7.700E+00  4.50840E-03  4.86175E-09  7.33105E-10  1.75006E-13  2.40310E-14
  7.800E+00  4.62608E-03  4.84622E-09  7.32613E-10  1.76719E-13  2.43253E-14
  7.900E+00  4.74527E-03  4.83058E-09  7.32115E-10  1.78412E-13  2.46190E-14
  8.000E+00  4.86597E-03  4.81483E-09  7.31612E-10  1.80087E-13  2.49119E-14
  8.100E+00  4.98817E-03  4.79898E-09  7.31103E-10  1.81744E-13  2.52042E-14
  8.200E+00  5.11188E-03  4.78303E-09  7.30588E-10  1.83382E-13  2.54958E-14
  8.300E+00  5.23711E-03  4.76697E-09  7.30068E-10  1.85001E-13  2.57867E-14
  8.400E+00  5.36383E-03  4.75082E-09  7.29542E-10  1.86602E-13  2.60769E-14
  8.500E+00  5.49207E-03  4.73457E-09  7.29011E-10  1.88184E-13  2.63664E-14
  8.600E+00  5.62181E-03  4.71823E-09  7.28474E-10  1.89748E-13  2.66552E-14
  8.700E+00  5.75306E-03  4.70180E-09  7.27932E-10  1.91292E-13  2.69433E-14
  8.800E+00  5.88581E-03  4.68528E-09  7.27385E-10  1.92818E-13  2.72307E-14
  8.900E+00  6.02007E-03  4.66868E-09  7.26832E-10  1.94325E-13  2.75173E-14
  9.000E+00  6.15583E-03  4.65199E-09  7.26274E-10  1.95813E-13  2.78032E-14
  9.100E+00  6.29310E-03  4.63523E-09  7.25711E-10  1.97282E-13  2.80884E-14
  9.200E+00  6.43187E-03  4.61839E-09  7.25142E-10  1.98733E-13  2.83728E-14
  9.300E+00  6.57214E-03  4.60148E-09  7.24568E-10  2.00165E-13  2.86564E-14
  9.400E+00  6.71392E-03  4.58449E-09  7.23989E-10  2.01578E-13  2.89393E-14
  9.500E+00  6.85720E-03  4.56744E-09  7.23404E-10  2.02972E-13  2.92214E-14
  9.600E+00  7.00198E-03  4.55032E-09  7.22815E-10  2.04348E-13  2.95028E-14
  9.700E+00  7.14827E-03  4.53313E-09  7.22220E-10  2.05705E-13  2.97833E-14
  9.800E+00  7.29605E-03  4.51589E-09  7.21620E-10  2.07043E-13  3.00631E-14
  9.900E+00  7.44534E-03  4.49858E-09  7.21016E-10  2.08362E-13  3.03421E-14
  1.000E+01  7.59612E-03  4.48122E-09  7.20406E-10  2.09663E-13  3.06203E-14
  1.025E+01  7.97965E-03  4.43758E-09  7.18859E-10  2.12833E-13  3.13123E-14
  1.050E+01  8.37255E-03  4.39365E-09  7.17281E-10  2.15888E-13  3.19992E-14
  1.075E+01  8.77480E-03  4.34945E-09  7.15673E-10  2.18828E-13  3.26809E-14
  1.100E+01  9.18641E-03  4.30502E-09  7.14035E-10  2.21654E-13  3.33574E-14
  1.125E+01  9.60736E-03  4.26040E-09  7.12368E-10  2.24367E-13  3.40285E-14
  1.150E+01  1.00376E-02  4.21562E-09  7.10672E-10  2.26967E-13  3.46942E-14
  1.175E+01  1.04773E-02  4.17072E-09  7.08947E-10  2.29458E-13  3.53545E-14
  1.200E+01  1.09262E-02  4.12572E-09  7.07195E-10  2.31839E-13  3.60091E-14
  1.225E+01  1.13844E-02  4.08066E-09  7.05415E-10  2.34112E-13  3.66582E-14
  1.250E+01  1.18520E-02  4.03557E-09  7.03608E-10  2.36279E-13  3.73015E-14
  1.275E+01  1.23288E-02  3.99047E-09  7.01775E-10  2.38341E-13  3.79391E-14
  1.300E+01  1.28150E-02  3.94540E-09  6.99916E-10  2.40300E-13  3.85708E-14
  1.325E+01  1.33104E-02  3.90038E-09  6.98032E-10  2.42158E-13  3.91967E-14
  1.350E+01  1.38150E-02  3.85544E-09  6.96122E-10  2.43916E-13  3.98167E-14
  1.375E+01  1.43290E-02  3.81060E-09  6.94189E-10  2.45576E-13  4.04307E-14
  1.400E+01  1.48521E-02  3.76589E-09  6.92232E-10  2.47141E-13  4.10386E-14
  1.425E+01  1.53845E-02  3.72133E-09  6.90252E-10  2.48611E-13  4.16404E-14
  1.450E+01  1.59262E-02  3.67694E-09  6.88249E-10  2.49990E-13  4.22361E-14
  1.475E+01  1.64770E-02  3.63274E-09  6.86224E-10  2.51279E-13  4.28257E-14
  1.500E+01  1.70371E-02  3.58875E-09  6.84177E-10  2.52479E-13  4.34090E-14
