 #  Scattering amplitudes (in cm)      MU=(1-cos(TH))/2
 #  Z =   6,   projectile: electron
 #  Kinetic energy = 1.76000E+02 eV
 #
 # TH (deg)      MU          Re(F)        Im(F)        Re(G)        Im(G)
 #--------------------------------------------------------------------------
  0.000E+00  0.00000E+00  1.72365E-08  1.09567E-08  0.00000E+00  0.00000E+00
  1.000E-04  7.61557E-13  1.72365E-08  1.09567E-08  3.93461E-18  5.26456E-18
  1.250E-04  1.18994E-12  1.72365E-08  1.09567E-08  4.91826E-18  6.58070E-18
  1.500E-04  1.71346E-12  1.72365E-08  1.09567E-08  5.90191E-18  7.89685E-18
  1.750E-04  2.33225E-12  1.72365E-08  1.09567E-08  6.88556E-18  9.21299E-18
  2.000E-04  3.04617E-12  1.72365E-08  1.09567E-08  7.86922E-18  1.05291E-17
  2.250E-04  3.85530E-12  1.72365E-08  1.09567E-08  8.85287E-18  1.18453E-17
  2.500E-04  4.75964E-12  1.72365E-08  1.09567E-08  9.83652E-18  1.31614E-17
  2.750E-04  5.75917E-12  1.72365E-08  1.09567E-08  1.08202E-17  1.44776E-17
  3.000E-04  6.85391E-12  1.72365E-08  1.09567E-08  1.18038E-17  1.57937E-17
  3.250E-04  8.04379E-12  1.72365E-08  1.09567E-08  1.27875E-17  1.71098E-17
  3.500E-04  9.32893E-12  1.72365E-08  1.09567E-08  1.37711E-17  1.84260E-17
  3.750E-04  1.07092E-11  1.72365E-08  1.09567E-08  1.47548E-17  1.97421E-17
  4.000E-04  1.21847E-11  1.72365E-08  1.09567E-08  1.57384E-17  2.10583E-17
  4.250E-04  1.37554E-11  1.72365E-08  1.09567E-08  1.67221E-17  2.23744E-17
  4.500E-04  1.54213E-11  1.72365E-08  1.09567E-08  1.77057E-17  2.36905E-17
  4.750E-04  1.71823E-11  1.72365E-08  1.09567E-08  1.86894E-17  2.50067E-17
  5.000E-04  1.90386E-11  1.72365E-08  1.09567E-08  1.96730E-17  2.63228E-17
  5.250E-04  2.09900E-11  1.72365E-08  1.09567E-08  2.06567E-17  2.76390E-17
  5.500E-04  2.30367E-11  1.72365E-08  1.09567E-08  2.16403E-17  2.89551E-17
  5.750E-04  2.51785E-11  1.72365E-08  1.09567E-08  2.26240E-17  3.02712E-17
  6.000E-04  2.74156E-11  1.72365E-08  1.09567E-08  2.36077E-17  3.15874E-17
  6.250E-04  2.97478E-11  1.72365E-08  1.09567E-08  2.45913E-17  3.29035E-17
  6.500E-04  3.21752E-11  1.72365E-08  1.09567E-08  2.55750E-17  3.42197E-17
  6.750E-04  3.46979E-11  1.72365E-08  1.09567E-08  2.65586E-17  3.55358E-17
  7.000E-04  3.73157E-11  1.72365E-08  1.09567E-08  2.75423E-17  3.68519E-17
  7.250E-04  4.00286E-11  1.72365E-08  1.09567E-08  2.85259E-17  3.81681E-17
  7.500E-04  4.28368E-11  1.72365E-08  1.09567E-08  2.95096E-17  3.94842E-17
  7.750E-04  4.57402E-11  1.72365E-08  1.09567E-08  3.04932E-17  4.08004E-17
  8.000E-04  4.87388E-11  1.72365E-08  1.09567E-08  3.14769E-17  4.21165E-17
  8.250E-04  5.18325E-11  1.72365E-08  1.09567E-08  3.24605E-17  4.34327E-17
  8.500E-04  5.50215E-11  1.72365E-08  1.09567E-08  3.34442E-17  4.47488E-17
  8.750E-04  5.83057E-11  1.72365E-08  1.09567E-08  3.44278E-17  4.60649E-17
  9.000E-04  6.16850E-11  1.72365E-08  1.09567E-08  3.54115E-17  4.73811E-17
  9.250E-04  6.51595E-11  1.72365E-08  1.09567E-08  3.63951E-17  4.86972E-17
  9.500E-04  6.87293E-11  1.72365E-08  1.09567E-08  3.73788E-17  5.00134E-17
  9.750E-04  7.23943E-11  1.72365E-08  1.09567E-08  3.83624E-17  5.13295E-17
  1.000E-03  7.61544E-11  1.72365E-08  1.09567E-08  3.93461E-17  5.26456E-17
  1.250E-03  1.18991E-10  1.72365E-08  1.09567E-08  4.91826E-17  6.58070E-17
  1.500E-03  1.71347E-10  1.72365E-08  1.09567E-08  5.90191E-17  7.89685E-17
  1.750E-03  2.33223E-10  1.72365E-08  1.09567E-08  6.88556E-17  9.21299E-17
  2.000E-03  3.04617E-10  1.72365E-08  1.09567E-08  7.86922E-17  1.05291E-16
  2.250E-03  3.85531E-10  1.72365E-08  1.09567E-08  8.85287E-17  1.18453E-16
  2.500E-03  4.75965E-10  1.72365E-08  1.09567E-08  9.83652E-17  1.31614E-16
  2.750E-03  5.75917E-10  1.72365E-08  1.09567E-08  1.08202E-16  1.44776E-16
  3.000E-03  6.85389E-10  1.72365E-08  1.09567E-08  1.18038E-16  1.57937E-16
  3.250E-03  8.04380E-10  1.72365E-08  1.09567E-08  1.27875E-16  1.71098E-16
  3.500E-03  9.32891E-10  1.72365E-08  1.09567E-08  1.37711E-16  1.84260E-16
  3.750E-03  1.07092E-09  1.72365E-08  1.09567E-08  1.47548E-16  1.97421E-16
  4.000E-03  1.21847E-09  1.72365E-08  1.09567E-08  1.57384E-16  2.10583E-16
  4.250E-03  1.37554E-09  1.72365E-08  1.09567E-08  1.67221E-16  2.23744E-16
  4.500E-03  1.54213E-09  1.72365E-08  1.09567E-08  1.77057E-16  2.36905E-16
  4.750E-03  1.71823E-09  1.72365E-08  1.09567E-08  1.86894E-16  2.50067E-16
  5.000E-03  1.90386E-09  1.72365E-08  1.09567E-08  1.96730E-16  2.63228E-16
  5.250E-03  2.09900E-09  1.72365E-08  1.09567E-08  2.06567E-16  2.76390E-16
  5.500E-03  2.30367E-09  1.72365E-08  1.09567E-08  2.16403E-16  2.89551E-16
  5.750E-03  2.51785E-09  1.72365E-08  1.09567E-08  2.26240E-16  3.02712E-16
  6.000E-03  2.74156E-09  1.72365E-08  1.09567E-08  2.36076E-16  3.15874E-16
  6.250E-03  2.97478E-09  1.72365E-08  1.09567E-08  2.45913E-16  3.29035E-16
  6.500E-03  3.21752E-09  1.72365E-08  1.09567E-08  2.55750E-16  3.42197E-16
  6.750E-03  3.46978E-09  1.72365E-08  1.09567E-08  2.65586E-16  3.55358E-16
  7.000E-03  3.73156E-09  1.72365E-08  1.09567E-08  2.75423E-16  3.68519E-16
  7.250E-03  4.00286E-09  1.72365E-08  1.09567E-08  2.85259E-16  3.81681E-16
  7.500E-03  4.28368E-09  1.72365E-08  1.09567E-08  2.95096E-16  3.94842E-16
  7.750E-03  4.57402E-09  1.72365E-08  1.09567E-08  3.04932E-16  4.08004E-16
  8.000E-03  4.87388E-09  1.72365E-08  1.09567E-08  3.14769E-16  4.21165E-16
  8.250E-03  5.18326E-09  1.72365E-08  1.09567E-08  3.24605E-16  4.34327E-16
  8.500E-03  5.50215E-09  1.72365E-08  1.09567E-08  3.34442E-16  4.47488E-16
  8.750E-03  5.83057E-09  1.72365E-08  1.09567E-08  3.44278E-16  4.60649E-16
  9.000E-03  6.16850E-09  1.72365E-08  1.09567E-08  3.54115E-16  4.73811E-16
  9.250E-03  6.51596E-09  1.72365E-08  1.09567E-08  3.63951E-16  4.86972E-16
  9.500E-03  6.87293E-09  1.72365E-08  1.09567E-08  3.73788E-16  5.00134E-16
  9.750E-03  7.23942E-09  1.72365E-08  1.09567E-08  3.83624E-16  5.13295E-16
  1.000E-02  7.61544E-09  1.72365E-08  1.09567E-08  3.93461E-16  5.26456E-16
  1.250E-02  1.18991E-08  1.72365E-08  1.09567E-08  4.91826E-16  6.58070E-16
  1.500E-02  1.71347E-08  1.72365E-08  1.09567E-08  5.90191E-16  7.89684E-16
  1.750E-02  2.33223E-08  1.72365E-08  1.09567E-08  6.88556E-16  9.21299E-16
  2.000E-02  3.04617E-08  1.72365E-08  1.09567E-08  7.86921E-16  1.05291E-15
  2.250E-02  3.85531E-08  1.72365E-08  1.09567E-08  8.85285E-16  1.18453E-15
  2.500E-02  4.75965E-08  1.72365E-08  1.09567E-08  9.83650E-16  1.31614E-15
  2.750E-02  5.75917E-08  1.72365E-08  1.09567E-08  1.08201E-15  1.44775E-15
  3.000E-02  6.85389E-08  1.72365E-08  1.09567E-08  1.18038E-15  1.57937E-15
  3.250E-02  8.04380E-08  1.72365E-08  1.09567E-08  1.27874E-15  1.71098E-15
  3.500E-02  9.32891E-08  1.72365E-08  1.09567E-08  1.37711E-15  1.84260E-15
  3.750E-02  1.07092E-07  1.72364E-08  1.09567E-08  1.47547E-15  1.97421E-15
  4.000E-02  1.21847E-07  1.72364E-08  1.09567E-08  1.57384E-15  2.10582E-15
  4.250E-02  1.37554E-07  1.72364E-08  1.09567E-08  1.67220E-15  2.23744E-15
  4.500E-02  1.54213E-07  1.72364E-08  1.09567E-08  1.77056E-15  2.36905E-15
  4.750E-02  1.71823E-07  1.72364E-08  1.09567E-08  1.86893E-15  2.50067E-15
  5.000E-02  1.90386E-07  1.72364E-08  1.09567E-08  1.96729E-15  2.63228E-15
  5.250E-02  2.09900E-07  1.72364E-08  1.09567E-08  2.06565E-15  2.76389E-15
  5.500E-02  2.30367E-07  1.72364E-08  1.09566E-08  2.16401E-15  2.89551E-15
  5.750E-02  2.51785E-07  1.72364E-08  1.09566E-08  2.26238E-15  3.02712E-15
  6.000E-02  2.74156E-07  1.72364E-08  1.09566E-08  2.36074E-15  3.15873E-15
  6.250E-02  2.97478E-07  1.72363E-08  1.09566E-08  2.45910E-15  3.29035E-15
  6.500E-02  3.21752E-07  1.72363E-08  1.09566E-08  2.55746E-15  3.42196E-15
  6.750E-02  3.46978E-07  1.72363E-08  1.09566E-08  2.65582E-15  3.55357E-15
  7.000E-02  3.73156E-07  1.72363E-08  1.09566E-08  2.75418E-15  3.68519E-15
  7.250E-02  4.00286E-07  1.72363E-08  1.09566E-08  2.85254E-15  3.81680E-15
  7.500E-02  4.28368E-07  1.72363E-08  1.09566E-08  2.95090E-15  3.94841E-15
  7.750E-02  4.57402E-07  1.72363E-08  1.09566E-08  3.04926E-15  4.08003E-15
  8.000E-02  4.87388E-07  1.72362E-08  1.09566E-08  3.14762E-15  4.21164E-15
  8.250E-02  5.18325E-07  1.72362E-08  1.09566E-08  3.24598E-15  4.34325E-15
  8.500E-02  5.50215E-07  1.72362E-08  1.09566E-08  3.34434E-15  4.47487E-15
  8.750E-02  5.83057E-07  1.72362E-08  1.09566E-08  3.44270E-15  4.60648E-15
  9.000E-02  6.16850E-07  1.72362E-08  1.09566E-08  3.54105E-15  4.73809E-15
  9.250E-02  6.51596E-07  1.72362E-08  1.09566E-08  3.63941E-15  4.86970E-15
  9.500E-02  6.87293E-07  1.72361E-08  1.09566E-08  3.73777E-15  5.00132E-15
  9.750E-02  7.23942E-07  1.72361E-08  1.09566E-08  3.83613E-15  5.13293E-15
  1.000E-01  7.61543E-07  1.72361E-08  1.09566E-08  3.93448E-15  5.26454E-15
  1.250E-01  1.18991E-06  1.72359E-08  1.09566E-08  4.91801E-15  6.58066E-15
  1.500E-01  1.71347E-06  1.72356E-08  1.09565E-08  5.90148E-15  7.89677E-15
  1.750E-01  2.33223E-06  1.72353E-08  1.09565E-08  6.88488E-15  9.21287E-15
  2.000E-01  3.04617E-06  1.72349E-08  1.09564E-08  7.86820E-15  1.05289E-14
  2.250E-01  3.85531E-06  1.72345E-08  1.09563E-08  8.85142E-15  1.18450E-14
  2.500E-01  4.75964E-06  1.72340E-08  1.09563E-08  9.83453E-15  1.31611E-14
  2.750E-01  5.75916E-06  1.72335E-08  1.09562E-08  1.08175E-14  1.44771E-14
  3.000E-01  6.85388E-06  1.72329E-08  1.09561E-08  1.18004E-14  1.57931E-14
  3.250E-01  8.04378E-06  1.72323E-08  1.09560E-08  1.27831E-14  1.71091E-14
  3.500E-01  9.32888E-06  1.72316E-08  1.09559E-08  1.37657E-14  1.84250E-14
  3.750E-01  1.07092E-05  1.72308E-08  1.09558E-08  1.47481E-14  1.97409E-14
  4.000E-01  1.21846E-05  1.72301E-08  1.09557E-08  1.57303E-14  2.10568E-14
  4.250E-01  1.37553E-05  1.72292E-08  1.09555E-08  1.67123E-14  2.23727E-14
  4.500E-01  1.54212E-05  1.72284E-08  1.09554E-08  1.76941E-14  2.36885E-14
  4.750E-01  1.71822E-05  1.72274E-08  1.09552E-08  1.86757E-14  2.50043E-14
  5.000E-01  1.90385E-05  1.72264E-08  1.09551E-08  1.96571E-14  2.63200E-14
  5.250E-01  2.09899E-05  1.72254E-08  1.09549E-08  2.06383E-14  2.76357E-14
  5.500E-01  2.30365E-05  1.72243E-08  1.09548E-08  2.16192E-14  2.89514E-14
  5.750E-01  2.51783E-05  1.72232E-08  1.09546E-08  2.25998E-14  3.02670E-14
  6.000E-01  2.74153E-05  1.72220E-08  1.09544E-08  2.35801E-14  3.15825E-14
  6.250E-01  2.97475E-05  1.72208E-08  1.09542E-08  2.45602E-14  3.28981E-14
  6.500E-01  3.21749E-05  1.72195E-08  1.09540E-08  2.55400E-14  3.42135E-14
  6.750E-01  3.46974E-05  1.72182E-08  1.09538E-08  2.65194E-14  3.55289E-14
  7.000E-01  3.73152E-05  1.72168E-08  1.09536E-08  2.74986E-14  3.68443E-14
  7.250E-01  4.00281E-05  1.72154E-08  1.09533E-08  2.84774E-14  3.81595E-14
  7.500E-01  4.28362E-05  1.72139E-08  1.09531E-08  2.94559E-14  3.94748E-14
  7.750E-01  4.57395E-05  1.72124E-08  1.09529E-08  3.04340E-14  4.07899E-14
  8.000E-01  4.87380E-05  1.72108E-08  1.09526E-08  3.14117E-14  4.21050E-14
  8.250E-01  5.18317E-05  1.72091E-08  1.09524E-08  3.23890E-14  4.34201E-14
  8.500E-01  5.50205E-05  1.72075E-08  1.09521E-08  3.33660E-14  4.47350E-14
  8.750E-01  5.83045E-05  1.72057E-08  1.09518E-08  3.43426E-14  4.60499E-14
  9.000E-01  6.16838E-05  1.72039E-08  1.09515E-08  3.53187E-14  4.73647E-14
  9.250E-01  6.51582E-05  1.72021E-08  1.09512E-08  3.62944E-14  4.86795E-14
  9.500E-01  6.87277E-05  1.72002E-08  1.09510E-08  3.72697E-14  4.99941E-14
  9.750E-01  7.23925E-05  1.71983E-08  1.09506E-08  3.82445E-14  5.13087E-14
  1.000E+00  7.61524E-05  1.71963E-08  1.09503E-08  3.92189E-14  5.26232E-14
  1.100E+00  9.21439E-05  1.71879E-08  1.09490E-08  4.31114E-14  5.78804E-14
  1.200E+00  1.09658E-04  1.71787E-08  1.09475E-08  4.69956E-14  6.31360E-14
  1.300E+00  1.28695E-04  1.71687E-08  1.09460E-08  5.08707E-14  6.83901E-14
  1.400E+00  1.49255E-04  1.71579E-08  1.09443E-08  5.47359E-14  7.36424E-14
  1.500E+00  1.71338E-04  1.71463E-08  1.09424E-08  5.85905E-14  7.88928E-14
  1.600E+00  1.94942E-04  1.71339E-08  1.09405E-08  6.24338E-14  8.41413E-14
  1.700E+00  2.20070E-04  1.71207E-08  1.09384E-08  6.62650E-14  8.93875E-14
  1.800E+00  2.46720E-04  1.71067E-08  1.09362E-08  7.00833E-14  9.46315E-14
  1.900E+00  2.74892E-04  1.70920E-08  1.09338E-08  7.38882E-14  9.98731E-14
  2.000E+00  3.04586E-04  1.70765E-08  1.09314E-08  7.76787E-14  1.05112E-13
  2.100E+00  3.35803E-04  1.70602E-08  1.09288E-08  8.14542E-14  1.10348E-13
  2.200E+00  3.68542E-04  1.70431E-08  1.09260E-08  8.52141E-14  1.15582E-13
  2.300E+00  4.02802E-04  1.70252E-08  1.09232E-08  8.89574E-14  1.20813E-13
  2.400E+00  4.38585E-04  1.70066E-08  1.09202E-08  9.26837E-14  1.26040E-13
  2.500E+00  4.75889E-04  1.69872E-08  1.09171E-08  9.63920E-14  1.31264E-13
  2.600E+00  5.14715E-04  1.69671E-08  1.09139E-08  1.00082E-13  1.36485E-13
  2.700E+00  5.55063E-04  1.69462E-08  1.09106E-08  1.03752E-13  1.41703E-13
  2.800E+00  5.96931E-04  1.69245E-08  1.09071E-08  1.07403E-13  1.46917E-13
  2.900E+00  6.40321E-04  1.69021E-08  1.09035E-08  1.11033E-13  1.52127E-13
  3.000E+00  6.85233E-04  1.68790E-08  1.08998E-08  1.14642E-13  1.57333E-13
  3.100E+00  7.31665E-04  1.68551E-08  1.08960E-08  1.18229E-13  1.62536E-13
  3.200E+00  7.79618E-04  1.68304E-08  1.08920E-08  1.21793E-13  1.67734E-13
  3.300E+00  8.29092E-04  1.68050E-08  1.08879E-08  1.25333E-13  1.72928E-13
  3.400E+00  8.80086E-04  1.67789E-08  1.08837E-08  1.28850E-13  1.78117E-13
  3.500E+00  9.32601E-04  1.67521E-08  1.08794E-08  1.32342E-13  1.83302E-13
  3.600E+00  9.86636E-04  1.67245E-08  1.08749E-08  1.35809E-13  1.88482E-13
  3.700E+00  1.04219E-03  1.66962E-08  1.08703E-08  1.39250E-13  1.93658E-13
  3.800E+00  1.09927E-03  1.66672E-08  1.08656E-08  1.42665E-13  1.98829E-13
  3.900E+00  1.15786E-03  1.66375E-08  1.08608E-08  1.46052E-13  2.03994E-13
  4.000E+00  1.21797E-03  1.66071E-08  1.08558E-08  1.49412E-13  2.09155E-13
  4.100E+00  1.27961E-03  1.65760E-08  1.08507E-08  1.52743E-13  2.14310E-13
  4.200E+00  1.34276E-03  1.65442E-08  1.08455E-08  1.56045E-13  2.19460E-13
  4.300E+00  1.40743E-03  1.65117E-08  1.08402E-08  1.59318E-13  2.24604E-13
  4.400E+00  1.47362E-03  1.64785E-08  1.08348E-08  1.62561E-13  2.29742E-13
  4.500E+00  1.54133E-03  1.64447E-08  1.08292E-08  1.65773E-13  2.34875E-13
  4.600E+00  1.61056E-03  1.64102E-08  1.08235E-08  1.68953E-13  2.40002E-13
  4.700E+00  1.68131E-03  1.63750E-08  1.08177E-08  1.72102E-13  2.45122E-13
  4.800E+00  1.75357E-03  1.63391E-08  1.08118E-08  1.75219E-13  2.50237E-13
  4.900E+00  1.82735E-03  1.63026E-08  1.08057E-08  1.78302E-13  2.55345E-13
  5.000E+00  1.90265E-03  1.62654E-08  1.07996E-08  1.81352E-13  2.60447E-13
  5.100E+00  1.97947E-03  1.62276E-08  1.07933E-08  1.84368E-13  2.65542E-13
  5.200E+00  2.05780E-03  1.61891E-08  1.07869E-08  1.87350E-13  2.70631E-13
  5.300E+00  2.13765E-03  1.61501E-08  1.07803E-08  1.90296E-13  2.75713E-13
  5.400E+00  2.21902E-03  1.61103E-08  1.07737E-08  1.93207E-13  2.80787E-13
  5.500E+00  2.30190E-03  1.60700E-08  1.07669E-08  1.96082E-13  2.85855E-13
  5.600E+00  2.38630E-03  1.60290E-08  1.07600E-08  1.98920E-13  2.90916E-13
  5.700E+00  2.47222E-03  1.59875E-08  1.07530E-08  2.01722E-13  2.95969E-13
  5.800E+00  2.55965E-03  1.59453E-08  1.07459E-08  2.04485E-13  3.01015E-13
  5.900E+00  2.64859E-03  1.59026E-08  1.07386E-08  2.07212E-13  3.06053E-13
  6.000E+00  2.73905E-03  1.58592E-08  1.07313E-08  2.09899E-13  3.11084E-13
  6.100E+00  2.83103E-03  1.58153E-08  1.07238E-08  2.12548E-13  3.16107E-13
  6.200E+00  2.92452E-03  1.57708E-08  1.07162E-08  2.15158E-13  3.21122E-13
  6.300E+00  3.01952E-03  1.57257E-08  1.07084E-08  2.17728E-13  3.26129E-13
  6.400E+00  3.11604E-03  1.56801E-08  1.07006E-08  2.20258E-13  3.31128E-13
  6.500E+00  3.21407E-03  1.56339E-08  1.06927E-08  2.22748E-13  3.36118E-13
  6.600E+00  3.31362E-03  1.55871E-08  1.06846E-08  2.25196E-13  3.41101E-13
  6.700E+00  3.41468E-03  1.55398E-08  1.06764E-08  2.27604E-13  3.46074E-13
  6.800E+00  3.51725E-03  1.54920E-08  1.06681E-08  2.29970E-13  3.51039E-13
  6.900E+00  3.62133E-03  1.54436E-08  1.06597E-08  2.32294E-13  3.55996E-13
  7.000E+00  3.72692E-03  1.53947E-08  1.06512E-08  2.34576E-13  3.60943E-13
  7.100E+00  3.83403E-03  1.53453E-08  1.06425E-08  2.36815E-13  3.65882E-13
  7.200E+00  3.94265E-03  1.52954E-08  1.06338E-08  2.39011E-13  3.70811E-13
  7.300E+00  4.05278E-03  1.52450E-08  1.06249E-08  2.41163E-13  3.75732E-13
  7.400E+00  4.16442E-03  1.51941E-08  1.06159E-08  2.43273E-13  3.80643E-13
  7.500E+00  4.27757E-03  1.51427E-08  1.06068E-08  2.45338E-13  3.85544E-13
  7.600E+00  4.39223E-03  1.50909E-08  1.05976E-08  2.47359E-13  3.90436E-13
  7.700E+00  4.50840E-03  1.50385E-08  1.05883E-08  2.49335E-13  3.95319E-13
  7.800E+00  4.62608E-03  1.49857E-08  1.05788E-08  2.51267E-13  4.00191E-13
  7.900E+00  4.74527E-03  1.49325E-08  1.05693E-08  2.53154E-13  4.05054E-13
  8.000E+00  4.86597E-03  1.48787E-08  1.05596E-08  2.54995E-13  4.09907E-13
  8.100E+00  4.98817E-03  1.48246E-08  1.05498E-08  2.56791E-13  4.14750E-13
  8.200E+00  5.11188E-03  1.47700E-08  1.05399E-08  2.58541E-13  4.19582E-13
  8.300E+00  5.23711E-03  1.47150E-08  1.05299E-08  2.60245E-13  4.24405E-13
  8.400E+00  5.36383E-03  1.46595E-08  1.05198E-08  2.61902E-13  4.29216E-13
  8.500E+00  5.49207E-03  1.46036E-08  1.05096E-08  2.63514E-13  4.34018E-13
  8.600E+00  5.62181E-03  1.45474E-08  1.04993E-08  2.65078E-13  4.38808E-13
  8.700E+00  5.75306E-03  1.44907E-08  1.04889E-08  2.66596E-13  4.43588E-13
  8.800E+00  5.88581E-03  1.44336E-08  1.04783E-08  2.68067E-13  4.48358E-13
  8.900E+00  6.02007E-03  1.43762E-08  1.04677E-08  2.69490E-13  4.53116E-13
  9.000E+00  6.15583E-03  1.43183E-08  1.04569E-08  2.70866E-13  4.57863E-13
  9.100E+00  6.29310E-03  1.42601E-08  1.04461E-08  2.72195E-13  4.62599E-13
  9.200E+00  6.43187E-03  1.42016E-08  1.04351E-08  2.73476E-13  4.67324E-13
  9.300E+00  6.57214E-03  1.41426E-08  1.04240E-08  2.74709E-13  4.72037E-13
  9.400E+00  6.71392E-03  1.40834E-08  1.04128E-08  2.75894E-13  4.76739E-13
  9.500E+00  6.85720E-03  1.40238E-08  1.04015E-08  2.77031E-13  4.81429E-13
  9.600E+00  7.00198E-03  1.39638E-08  1.03901E-08  2.78120E-13  4.86108E-13
  9.700E+00  7.14827E-03  1.39035E-08  1.03786E-08  2.79161E-13  4.90775E-13
  9.800E+00  7.29605E-03  1.38429E-08  1.03670E-08  2.80153E-13  4.95430E-13
  9.900E+00  7.44534E-03  1.37820E-08  1.03553E-08  2.81097E-13  5.00073E-13
  1.000E+01  7.59612E-03  1.37208E-08  1.03435E-08  2.81992E-13  5.04704E-13
  1.025E+01  7.97965E-03  1.35664E-08  1.03135E-08  2.84018E-13  5.16228E-13
  1.050E+01  8.37255E-03  1.34103E-08  1.02829E-08  2.85739E-13  5.27674E-13
  1.075E+01  8.77480E-03  1.32526E-08  1.02516E-08  2.87156E-13  5.39042E-13
  1.100E+01  9.18641E-03  1.30933E-08  1.02198E-08  2.88267E-13  5.50329E-13
  1.125E+01  9.60736E-03  1.29326E-08  1.01873E-08  2.89073E-13  5.61535E-13
  1.150E+01  1.00376E-02  1.27706E-08  1.01542E-08  2.89574E-13  5.72657E-13
  1.175E+01  1.04773E-02  1.26073E-08  1.01204E-08  2.89772E-13  5.83694E-13
  1.200E+01  1.09262E-02  1.24430E-08  1.00861E-08  2.89666E-13  5.94646E-13
  1.225E+01  1.13844E-02  1.22776E-08  1.00513E-08  2.89259E-13  6.05510E-13
  1.250E+01  1.18520E-02  1.21113E-08  1.00158E-08  2.88552E-13  6.16285E-13
  1.275E+01  1.23288E-02  1.19442E-08  9.97975E-09  2.87546E-13  6.26971E-13
  1.300E+01  1.28150E-02  1.17764E-08  9.94314E-09  2.86243E-13  6.37566E-13
  1.325E+01  1.33104E-02  1.16080E-08  9.90598E-09  2.84646E-13  6.48068E-13
  1.350E+01  1.38150E-02  1.14391E-08  9.86828E-09  2.82758E-13  6.58477E-13
  1.375E+01  1.43290E-02  1.12697E-08  9.83003E-09  2.80580E-13  6.68792E-13
  1.400E+01  1.48521E-02  1.11000E-08  9.79125E-09  2.78115E-13  6.79011E-13
  1.425E+01  1.53845E-02  1.09300E-08  9.75195E-09  2.75368E-13  6.89133E-13
  1.450E+01  1.59262E-02  1.07599E-08  9.71214E-09  2.72340E-13  6.99157E-13
  1.475E+01  1.64770E-02  1.05896E-08  9.67181E-09  2.69035E-13  7.09083E-13
  1.500E+01  1.70371E-02  1.04194E-08  9.63099E-09  2.65456E-13  7.18908E-13
