 #  Scattering amplitudes (in cm)      MU=(1-cos(TH))/2
 #  Z =   6,   projectile: electron
 #  Kinetic energy = 1.08000E+02 eV
 #
 # TH (deg)      MU          Re(F)        Im(F)        Re(G)        Im(G)
 #--------------------------------------------------------------------------
  0.000E+00  0.00000E+00  1.56115E-08  1.18215E-08  0.00000E+00  0.00000E+00
  1.000E-04  7.61557E-13  1.56115E-08  1.18215E-08  7.26478E-19  3.53464E-18
  1.250E-04  1.18994E-12  1.56115E-08  1.18215E-08  9.08097E-19  4.41830E-18
  1.500E-04  1.71346E-12  1.56115E-08  1.18215E-08  1.08972E-18  5.30196E-18
  1.750E-04  2.33225E-12  1.56115E-08  1.18215E-08  1.27134E-18  6.18562E-18
  2.000E-04  3.04617E-12  1.56115E-08  1.18215E-08  1.45296E-18  7.06928E-18
  2.250E-04  3.85530E-12  1.56115E-08  1.18215E-08  1.63457E-18  7.95294E-18
  2.500E-04  4.75964E-12  1.56115E-08  1.18215E-08  1.81619E-18  8.83660E-18
  2.750E-04  5.75917E-12  1.56115E-08  1.18215E-08  1.99781E-18  9.72026E-18
  3.000E-04  6.85391E-12  1.56115E-08  1.18215E-08  2.17943E-18  1.06039E-17
  3.250E-04  8.04379E-12  1.56115E-08  1.18215E-08  2.36105E-18  1.14876E-17
  3.500E-04  9.32893E-12  1.56115E-08  1.18215E-08  2.54267E-18  1.23712E-17
  3.750E-04  1.07092E-11  1.56115E-08  1.18215E-08  2.72429E-18  1.32549E-17
  4.000E-04  1.21847E-11  1.56115E-08  1.18215E-08  2.90591E-18  1.41386E-17
  4.250E-04  1.37554E-11  1.56115E-08  1.18215E-08  3.08753E-18  1.50222E-17
  4.500E-04  1.54213E-11  1.56115E-08  1.18215E-08  3.26915E-18  1.59059E-17
  4.750E-04  1.71823E-11  1.56115E-08  1.18215E-08  3.45077E-18  1.67895E-17
  5.000E-04  1.90386E-11  1.56115E-08  1.18215E-08  3.63239E-18  1.76732E-17
  5.250E-04  2.09900E-11  1.56115E-08  1.18215E-08  3.81401E-18  1.85569E-17
  5.500E-04  2.30367E-11  1.56115E-08  1.18215E-08  3.99563E-18  1.94405E-17
  5.750E-04  2.51785E-11  1.56115E-08  1.18215E-08  4.17725E-18  2.03242E-17
  6.000E-04  2.74156E-11  1.56115E-08  1.18215E-08  4.35887E-18  2.12078E-17
  6.250E-04  2.97478E-11  1.56115E-08  1.18215E-08  4.54049E-18  2.20915E-17
  6.500E-04  3.21752E-11  1.56115E-08  1.18215E-08  4.72210E-18  2.29752E-17
  6.750E-04  3.46979E-11  1.56115E-08  1.18215E-08  4.90372E-18  2.38588E-17
  7.000E-04  3.73157E-11  1.56115E-08  1.18215E-08  5.08534E-18  2.47425E-17
  7.250E-04  4.00286E-11  1.56115E-08  1.18215E-08  5.26696E-18  2.56261E-17
  7.500E-04  4.28368E-11  1.56115E-08  1.18215E-08  5.44858E-18  2.65098E-17
  7.750E-04  4.57402E-11  1.56115E-08  1.18215E-08  5.63020E-18  2.73935E-17
  8.000E-04  4.87388E-11  1.56115E-08  1.18215E-08  5.81182E-18  2.82771E-17
  8.250E-04  5.18325E-11  1.56115E-08  1.18215E-08  5.99344E-18  2.91608E-17
  8.500E-04  5.50215E-11  1.56115E-08  1.18215E-08  6.17506E-18  3.00444E-17
  8.750E-04  5.83057E-11  1.56115E-08  1.18215E-08  6.35668E-18  3.09281E-17
  9.000E-04  6.16850E-11  1.56115E-08  1.18215E-08  6.53830E-18  3.18118E-17
  9.250E-04  6.51595E-11  1.56115E-08  1.18215E-08  6.71992E-18  3.26954E-17
  9.500E-04  6.87293E-11  1.56115E-08  1.18215E-08  6.90154E-18  3.35791E-17
  9.750E-04  7.23943E-11  1.56115E-08  1.18215E-08  7.08316E-18  3.44627E-17
  1.000E-03  7.61544E-11  1.56115E-08  1.18215E-08  7.26478E-18  3.53464E-17
  1.250E-03  1.18991E-10  1.56115E-08  1.18215E-08  9.08097E-18  4.41830E-17
  1.500E-03  1.71347E-10  1.56115E-08  1.18215E-08  1.08972E-17  5.30196E-17
  1.750E-03  2.33223E-10  1.56115E-08  1.18215E-08  1.27134E-17  6.18562E-17
  2.000E-03  3.04617E-10  1.56115E-08  1.18215E-08  1.45296E-17  7.06928E-17
  2.250E-03  3.85531E-10  1.56115E-08  1.18215E-08  1.63457E-17  7.95294E-17
  2.500E-03  4.75965E-10  1.56115E-08  1.18215E-08  1.81619E-17  8.83660E-17
  2.750E-03  5.75917E-10  1.56115E-08  1.18215E-08  1.99781E-17  9.72026E-17
  3.000E-03  6.85389E-10  1.56115E-08  1.18215E-08  2.17943E-17  1.06039E-16
  3.250E-03  8.04380E-10  1.56115E-08  1.18215E-08  2.36105E-17  1.14876E-16
  3.500E-03  9.32891E-10  1.56115E-08  1.18215E-08  2.54267E-17  1.23712E-16
  3.750E-03  1.07092E-09  1.56115E-08  1.18215E-08  2.72429E-17  1.32549E-16
  4.000E-03  1.21847E-09  1.56115E-08  1.18215E-08  2.90591E-17  1.41386E-16
  4.250E-03  1.37554E-09  1.56115E-08  1.18215E-08  3.08753E-17  1.50222E-16
  4.500E-03  1.54213E-09  1.56115E-08  1.18215E-08  3.26915E-17  1.59059E-16
  4.750E-03  1.71823E-09  1.56115E-08  1.18215E-08  3.45077E-17  1.67895E-16
  5.000E-03  1.90386E-09  1.56115E-08  1.18215E-08  3.63239E-17  1.76732E-16
  5.250E-03  2.09900E-09  1.56115E-08  1.18215E-08  3.81401E-17  1.85569E-16
  5.500E-03  2.30367E-09  1.56115E-08  1.18215E-08  3.99563E-17  1.94405E-16
  5.750E-03  2.51785E-09  1.56115E-08  1.18215E-08  4.17725E-17  2.03242E-16
  6.000E-03  2.74156E-09  1.56115E-08  1.18215E-08  4.35886E-17  2.12078E-16
  6.250E-03  2.97478E-09  1.56115E-08  1.18215E-08  4.54048E-17  2.20915E-16
  6.500E-03  3.21752E-09  1.56115E-08  1.18215E-08  4.72210E-17  2.29752E-16
  6.750E-03  3.46978E-09  1.56115E-08  1.18215E-08  4.90372E-17  2.38588E-16
  7.000E-03  3.73156E-09  1.56115E-08  1.18215E-08  5.08534E-17  2.47425E-16
  7.250E-03  4.00286E-09  1.56115E-08  1.18215E-08  5.26696E-17  2.56261E-16
  7.500E-03  4.28368E-09  1.56115E-08  1.18215E-08  5.44858E-17  2.65098E-16
  7.750E-03  4.57402E-09  1.56115E-08  1.18215E-08  5.63020E-17  2.73935E-16
  8.000E-03  4.87388E-09  1.56115E-08  1.18215E-08  5.81182E-17  2.82771E-16
  8.250E-03  5.18326E-09  1.56115E-08  1.18215E-08  5.99344E-17  2.91608E-16
  8.500E-03  5.50215E-09  1.56115E-08  1.18215E-08  6.17506E-17  3.00444E-16
  8.750E-03  5.83057E-09  1.56115E-08  1.18215E-08  6.35668E-17  3.09281E-16
  9.000E-03  6.16850E-09  1.56115E-08  1.18215E-08  6.53829E-17  3.18117E-16
  9.250E-03  6.51596E-09  1.56115E-08  1.18215E-08  6.71991E-17  3.26954E-16
  9.500E-03  6.87293E-09  1.56115E-08  1.18215E-08  6.90153E-17  3.35791E-16
  9.750E-03  7.23942E-09  1.56115E-08  1.18215E-08  7.08315E-17  3.44627E-16
  1.000E-02  7.61544E-09  1.56115E-08  1.18215E-08  7.26477E-17  3.53464E-16
  1.250E-02  1.18991E-08  1.56115E-08  1.18215E-08  9.08096E-17  4.41830E-16
  1.500E-02  1.71347E-08  1.56115E-08  1.18215E-08  1.08971E-16  5.30196E-16
  1.750E-02  2.33223E-08  1.56115E-08  1.18215E-08  1.27133E-16  6.18562E-16
  2.000E-02  3.04617E-08  1.56115E-08  1.18215E-08  1.45295E-16  7.06928E-16
  2.250E-02  3.85531E-08  1.56115E-08  1.18215E-08  1.63457E-16  7.95294E-16
  2.500E-02  4.75965E-08  1.56115E-08  1.18215E-08  1.81619E-16  8.83660E-16
  2.750E-02  5.75917E-08  1.56115E-08  1.18215E-08  1.99780E-16  9.72025E-16
  3.000E-02  6.85389E-08  1.56115E-08  1.18215E-08  2.17942E-16  1.06039E-15
  3.250E-02  8.04380E-08  1.56115E-08  1.18215E-08  2.36103E-16  1.14876E-15
  3.500E-02  9.32891E-08  1.56115E-08  1.18215E-08  2.54265E-16  1.23712E-15
  3.750E-02  1.07092E-07  1.56115E-08  1.18215E-08  2.72426E-16  1.32549E-15
  4.000E-02  1.21847E-07  1.56115E-08  1.18215E-08  2.90588E-16  1.41385E-15
  4.250E-02  1.37554E-07  1.56115E-08  1.18215E-08  3.08749E-16  1.50222E-15
  4.500E-02  1.54213E-07  1.56115E-08  1.18215E-08  3.26910E-16  1.59059E-15
  4.750E-02  1.71823E-07  1.56115E-08  1.18215E-08  3.45071E-16  1.67895E-15
  5.000E-02  1.90386E-07  1.56115E-08  1.18215E-08  3.63232E-16  1.76732E-15
  5.250E-02  2.09900E-07  1.56114E-08  1.18214E-08  3.81393E-16  1.85568E-15
  5.500E-02  2.30367E-07  1.56114E-08  1.18214E-08  3.99554E-16  1.94405E-15
  5.750E-02  2.51785E-07  1.56114E-08  1.18214E-08  4.17715E-16  2.03242E-15
  6.000E-02  2.74156E-07  1.56114E-08  1.18214E-08  4.35876E-16  2.12078E-15
  6.250E-02  2.97478E-07  1.56114E-08  1.18214E-08  4.54036E-16  2.20915E-15
  6.500E-02  3.21752E-07  1.56114E-08  1.18214E-08  4.72196E-16  2.29751E-15
  6.750E-02  3.46978E-07  1.56114E-08  1.18214E-08  4.90357E-16  2.38588E-15
  7.000E-02  3.73156E-07  1.56114E-08  1.18214E-08  5.08517E-16  2.47424E-15
  7.250E-02  4.00286E-07  1.56114E-08  1.18214E-08  5.26677E-16  2.56261E-15
  7.500E-02  4.28368E-07  1.56114E-08  1.18214E-08  5.44837E-16  2.65097E-15
  7.750E-02  4.57402E-07  1.56114E-08  1.18214E-08  5.62996E-16  2.73934E-15
  8.000E-02  4.87388E-07  1.56114E-08  1.18214E-08  5.81156E-16  2.82770E-15
  8.250E-02  5.18325E-07  1.56113E-08  1.18214E-08  5.99315E-16  2.91607E-15
  8.500E-02  5.50215E-07  1.56113E-08  1.18214E-08  6.17475E-16  3.00444E-15
  8.750E-02  5.83057E-07  1.56113E-08  1.18214E-08  6.35634E-16  3.09280E-15
  9.000E-02  6.16850E-07  1.56113E-08  1.18214E-08  6.53793E-16  3.18117E-15
  9.250E-02  6.51596E-07  1.56113E-08  1.18214E-08  6.71951E-16  3.26953E-15
  9.500E-02  6.87293E-07  1.56113E-08  1.18214E-08  6.90110E-16  3.35790E-15
  9.750E-02  7.23942E-07  1.56113E-08  1.18214E-08  7.08268E-16  3.44626E-15
  1.000E-01  7.61543E-07  1.56113E-08  1.18214E-08  7.26427E-16  3.53463E-15
  1.250E-01  1.18991E-06  1.56111E-08  1.18214E-08  9.07997E-16  4.41827E-15
  1.500E-01  1.71347E-06  1.56109E-08  1.18213E-08  1.08954E-15  5.30192E-15
  1.750E-01  2.33223E-06  1.56107E-08  1.18213E-08  1.27106E-15  6.18555E-15
  2.000E-01  3.04617E-06  1.56105E-08  1.18213E-08  1.45255E-15  7.06918E-15
  2.250E-01  3.85531E-06  1.56102E-08  1.18212E-08  1.63399E-15  7.95280E-15
  2.500E-01  4.75964E-06  1.56099E-08  1.18211E-08  1.81540E-15  8.83641E-15
  2.750E-01  5.75916E-06  1.56096E-08  1.18211E-08  1.99675E-15  9.72000E-15
  3.000E-01  6.85388E-06  1.56092E-08  1.18210E-08  2.17805E-15  1.06036E-14
  3.250E-01  8.04378E-06  1.56088E-08  1.18209E-08  2.35930E-15  1.14872E-14
  3.500E-01  9.32888E-06  1.56084E-08  1.18208E-08  2.54048E-15  1.23707E-14
  3.750E-01  1.07092E-05  1.56079E-08  1.18207E-08  2.72160E-15  1.32543E-14
  4.000E-01  1.21846E-05  1.56074E-08  1.18206E-08  2.90264E-15  1.41378E-14
  4.250E-01  1.37553E-05  1.56069E-08  1.18205E-08  3.08361E-15  1.50213E-14
  4.500E-01  1.54212E-05  1.56063E-08  1.18204E-08  3.26450E-15  1.59048E-14
  4.750E-01  1.71822E-05  1.56057E-08  1.18203E-08  3.44530E-15  1.67882E-14
  5.000E-01  1.90385E-05  1.56051E-08  1.18201E-08  3.62600E-15  1.76717E-14
  5.250E-01  2.09899E-05  1.56044E-08  1.18200E-08  3.80662E-15  1.85551E-14
  5.500E-01  2.30365E-05  1.56037E-08  1.18199E-08  3.98713E-15  1.94385E-14
  5.750E-01  2.51783E-05  1.56030E-08  1.18197E-08  4.16754E-15  2.03219E-14
  6.000E-01  2.74153E-05  1.56022E-08  1.18196E-08  4.34784E-15  2.12052E-14
  6.250E-01  2.97475E-05  1.56014E-08  1.18194E-08  4.52802E-15  2.20885E-14
  6.500E-01  3.21749E-05  1.56006E-08  1.18192E-08  4.70808E-15  2.29718E-14
  6.750E-01  3.46974E-05  1.55998E-08  1.18191E-08  4.88802E-15  2.38551E-14
  7.000E-01  3.73152E-05  1.55989E-08  1.18189E-08  5.06783E-15  2.47383E-14
  7.250E-01  4.00281E-05  1.55980E-08  1.18187E-08  5.24751E-15  2.56215E-14
  7.500E-01  4.28362E-05  1.55970E-08  1.18185E-08  5.42704E-15  2.65047E-14
  7.750E-01  4.57395E-05  1.55960E-08  1.18183E-08  5.60644E-15  2.73878E-14
  8.000E-01  4.87380E-05  1.55950E-08  1.18181E-08  5.78568E-15  2.82709E-14
  8.250E-01  5.18317E-05  1.55940E-08  1.18179E-08  5.96477E-15  2.91539E-14
  8.500E-01  5.50205E-05  1.55929E-08  1.18177E-08  6.14371E-15  3.00370E-14
  8.750E-01  5.83045E-05  1.55918E-08  1.18174E-08  6.32248E-15  3.09199E-14
  9.000E-01  6.16838E-05  1.55906E-08  1.18172E-08  6.50109E-15  3.18029E-14
  9.250E-01  6.51582E-05  1.55895E-08  1.18170E-08  6.67952E-15  3.26858E-14
  9.500E-01  6.87277E-05  1.55882E-08  1.18167E-08  6.85778E-15  3.35686E-14
  9.750E-01  7.23925E-05  1.55870E-08  1.18165E-08  7.03585E-15  3.44515E-14
  1.000E+00  7.61524E-05  1.55857E-08  1.18162E-08  7.21374E-15  3.53342E-14
  1.100E+00  9.21439E-05  1.55803E-08  1.18151E-08  7.92334E-15  3.88648E-14
  1.200E+00  1.09658E-04  1.55744E-08  1.18139E-08  8.62958E-15  4.23946E-14
  1.300E+00  1.28695E-04  1.55680E-08  1.18126E-08  9.33215E-15  4.59236E-14
  1.400E+00  1.49255E-04  1.55610E-08  1.18111E-08  1.00308E-14  4.94516E-14
  1.500E+00  1.71338E-04  1.55536E-08  1.18096E-08  1.07251E-14  5.29785E-14
  1.600E+00  1.94942E-04  1.55456E-08  1.18080E-08  1.14149E-14  5.65044E-14
  1.700E+00  2.20070E-04  1.55371E-08  1.18062E-08  1.20998E-14  6.00291E-14
  1.800E+00  2.46720E-04  1.55282E-08  1.18044E-08  1.27796E-14  6.35526E-14
  1.900E+00  2.74892E-04  1.55187E-08  1.18024E-08  1.34538E-14  6.70747E-14
  2.000E+00  3.04586E-04  1.55087E-08  1.18004E-08  1.41224E-14  7.05955E-14
  2.100E+00  3.35803E-04  1.54982E-08  1.17982E-08  1.47848E-14  7.41148E-14
  2.200E+00  3.68542E-04  1.54872E-08  1.17960E-08  1.54410E-14  7.76326E-14
  2.300E+00  4.02802E-04  1.54757E-08  1.17936E-08  1.60904E-14  8.11488E-14
  2.400E+00  4.38585E-04  1.54636E-08  1.17911E-08  1.67330E-14  8.46633E-14
  2.500E+00  4.75889E-04  1.54511E-08  1.17886E-08  1.73683E-14  8.81761E-14
  2.600E+00  5.14715E-04  1.54381E-08  1.17859E-08  1.79961E-14  9.16870E-14
  2.700E+00  5.55063E-04  1.54246E-08  1.17831E-08  1.86160E-14  9.51961E-14
  2.800E+00  5.96931E-04  1.54106E-08  1.17802E-08  1.92279E-14  9.87032E-14
  2.900E+00  6.40321E-04  1.53961E-08  1.17772E-08  1.98314E-14  1.02208E-13
  3.000E+00  6.85233E-04  1.53812E-08  1.17741E-08  2.04263E-14  1.05711E-13
  3.100E+00  7.31665E-04  1.53657E-08  1.17709E-08  2.10122E-14  1.09212E-13
  3.200E+00  7.79618E-04  1.53497E-08  1.17676E-08  2.15888E-14  1.12711E-13
  3.300E+00  8.29092E-04  1.53332E-08  1.17642E-08  2.21560E-14  1.16207E-13
  3.400E+00  8.80086E-04  1.53163E-08  1.17607E-08  2.27133E-14  1.19701E-13
  3.500E+00  9.32601E-04  1.52989E-08  1.17571E-08  2.32606E-14  1.23192E-13
  3.600E+00  9.86636E-04  1.52810E-08  1.17533E-08  2.37976E-14  1.26681E-13
  3.700E+00  1.04219E-03  1.52626E-08  1.17495E-08  2.43239E-14  1.30167E-13
  3.800E+00  1.09927E-03  1.52437E-08  1.17456E-08  2.48394E-14  1.33650E-13
  3.900E+00  1.15786E-03  1.52244E-08  1.17415E-08  2.53437E-14  1.37131E-13
  4.000E+00  1.21797E-03  1.52046E-08  1.17374E-08  2.58366E-14  1.40609E-13
  4.100E+00  1.27961E-03  1.51843E-08  1.17332E-08  2.63178E-14  1.44084E-13
  4.200E+00  1.34276E-03  1.51635E-08  1.17288E-08  2.67871E-14  1.47556E-13
  4.300E+00  1.40743E-03  1.51423E-08  1.17244E-08  2.72442E-14  1.51025E-13
  4.400E+00  1.47362E-03  1.51206E-08  1.17198E-08  2.76888E-14  1.54491E-13
  4.500E+00  1.54133E-03  1.50984E-08  1.17152E-08  2.81206E-14  1.57954E-13
  4.600E+00  1.61056E-03  1.50758E-08  1.17104E-08  2.85395E-14  1.61414E-13
  4.700E+00  1.68131E-03  1.50527E-08  1.17056E-08  2.89452E-14  1.64870E-13
  4.800E+00  1.75357E-03  1.50292E-08  1.17006E-08  2.93374E-14  1.68323E-13
  4.900E+00  1.82735E-03  1.50052E-08  1.16955E-08  2.97158E-14  1.71772E-13
  5.000E+00  1.90265E-03  1.49807E-08  1.16904E-08  3.00803E-14  1.75218E-13
  5.100E+00  1.97947E-03  1.49558E-08  1.16851E-08  3.04306E-14  1.78661E-13
  5.200E+00  2.05780E-03  1.49305E-08  1.16797E-08  3.07664E-14  1.82099E-13
  5.300E+00  2.13765E-03  1.49047E-08  1.16743E-08  3.10875E-14  1.85534E-13
  5.400E+00  2.21902E-03  1.48785E-08  1.16687E-08  3.13937E-14  1.88965E-13
  5.500E+00  2.30190E-03  1.48518E-08  1.16630E-08  3.16847E-14  1.92393E-13
  5.600E+00  2.38630E-03  1.48247E-08  1.16573E-08  3.19604E-14  1.95816E-13
  5.700E+00  2.47222E-03  1.47972E-08  1.16514E-08  3.22204E-14  1.99235E-13
  5.800E+00  2.55965E-03  1.47692E-08  1.16454E-08  3.24645E-14  2.02650E-13
  5.900E+00  2.64859E-03  1.47409E-08  1.16393E-08  3.26926E-14  2.06061E-13
  6.000E+00  2.73905E-03  1.47120E-08  1.16332E-08  3.29044E-14  2.09468E-13
  6.100E+00  2.83103E-03  1.46828E-08  1.16269E-08  3.30997E-14  2.12871E-13
  6.200E+00  2.92452E-03  1.46531E-08  1.16205E-08  3.32782E-14  2.16269E-13
  6.300E+00  3.01952E-03  1.46231E-08  1.16140E-08  3.34398E-14  2.19663E-13
  6.400E+00  3.11604E-03  1.45926E-08  1.16074E-08  3.35843E-14  2.23052E-13
  6.500E+00  3.21407E-03  1.45617E-08  1.16008E-08  3.37114E-14  2.26437E-13
  6.600E+00  3.31362E-03  1.45304E-08  1.15940E-08  3.38210E-14  2.29817E-13
  6.700E+00  3.41468E-03  1.44987E-08  1.15871E-08  3.39128E-14  2.33193E-13
  6.800E+00  3.51725E-03  1.44666E-08  1.15801E-08  3.39866E-14  2.36564E-13
  6.900E+00  3.62133E-03  1.44341E-08  1.15730E-08  3.40423E-14  2.39930E-13
  7.000E+00  3.72692E-03  1.44012E-08  1.15659E-08  3.40797E-14  2.43291E-13
  7.100E+00  3.83403E-03  1.43679E-08  1.15586E-08  3.40985E-14  2.46647E-13
  7.200E+00  3.94265E-03  1.43342E-08  1.15512E-08  3.40986E-14  2.49998E-13
  7.300E+00  4.05278E-03  1.43001E-08  1.15437E-08  3.40798E-14  2.53344E-13
  7.400E+00  4.16442E-03  1.42657E-08  1.15362E-08  3.40419E-14  2.56685E-13
  7.500E+00  4.27757E-03  1.42309E-08  1.15285E-08  3.39847E-14  2.60020E-13
  7.600E+00  4.39223E-03  1.41957E-08  1.15207E-08  3.39081E-14  2.63351E-13
  7.700E+00  4.50840E-03  1.41601E-08  1.15129E-08  3.38119E-14  2.66676E-13
  7.800E+00  4.62608E-03  1.41241E-08  1.15049E-08  3.36959E-14  2.69995E-13
  7.900E+00  4.74527E-03  1.40878E-08  1.14969E-08  3.35599E-14  2.73309E-13
  8.000E+00  4.86597E-03  1.40512E-08  1.14887E-08  3.34039E-14  2.76618E-13
  8.100E+00  4.98817E-03  1.40142E-08  1.14804E-08  3.32276E-14  2.79921E-13
  8.200E+00  5.11188E-03  1.39768E-08  1.14721E-08  3.30308E-14  2.83218E-13
  8.300E+00  5.23711E-03  1.39390E-08  1.14636E-08  3.28135E-14  2.86510E-13
  8.400E+00  5.36383E-03  1.39010E-08  1.14551E-08  3.25755E-14  2.89796E-13
  8.500E+00  5.49207E-03  1.38625E-08  1.14465E-08  3.23165E-14  2.93076E-13
  8.600E+00  5.62181E-03  1.38238E-08  1.14377E-08  3.20366E-14  2.96350E-13
  8.700E+00  5.75306E-03  1.37847E-08  1.14289E-08  3.17355E-14  2.99618E-13
  8.800E+00  5.88581E-03  1.37453E-08  1.14200E-08  3.14131E-14  3.02880E-13
  8.900E+00  6.02007E-03  1.37055E-08  1.14109E-08  3.10692E-14  3.06136E-13
  9.000E+00  6.15583E-03  1.36654E-08  1.14018E-08  3.07038E-14  3.09385E-13
  9.100E+00  6.29310E-03  1.36250E-08  1.13926E-08  3.03167E-14  3.12629E-13
  9.200E+00  6.43187E-03  1.35843E-08  1.13833E-08  2.99078E-14  3.15866E-13
  9.300E+00  6.57214E-03  1.35432E-08  1.13739E-08  2.94769E-14  3.19097E-13
  9.400E+00  6.71392E-03  1.35019E-08  1.13644E-08  2.90239E-14  3.22321E-13
  9.500E+00  6.85720E-03  1.34602E-08  1.13548E-08  2.85488E-14  3.25539E-13
  9.600E+00  7.00198E-03  1.34182E-08  1.13451E-08  2.80514E-14  3.28751E-13
  9.700E+00  7.14827E-03  1.33760E-08  1.13354E-08  2.75315E-14  3.31956E-13
  9.800E+00  7.29605E-03  1.33334E-08  1.13255E-08  2.69892E-14  3.35154E-13
  9.900E+00  7.44534E-03  1.32906E-08  1.13155E-08  2.64242E-14  3.38345E-13
  1.000E+01  7.59612E-03  1.32474E-08  1.13055E-08  2.58366E-14  3.41530E-13
  1.025E+01  7.97965E-03  1.31383E-08  1.12800E-08  2.42673E-14  3.49461E-13
  1.050E+01  8.37255E-03  1.30275E-08  1.12538E-08  2.25541E-14  3.57349E-13
  1.075E+01  8.77480E-03  1.29150E-08  1.12272E-08  2.06954E-14  3.65192E-13
  1.100E+01  9.18641E-03  1.28008E-08  1.11999E-08  1.86902E-14  3.72990E-13
  1.125E+01  9.60736E-03  1.26852E-08  1.11721E-08  1.65374E-14  3.80741E-13
  1.150E+01  1.00376E-02  1.25680E-08  1.11437E-08  1.42359E-14  3.88445E-13
  1.175E+01  1.04773E-02  1.24494E-08  1.11148E-08  1.17850E-14  3.96101E-13
  1.200E+01  1.09262E-02  1.23294E-08  1.10854E-08  9.18377E-15  4.03708E-13
  1.225E+01  1.13844E-02  1.22082E-08  1.10553E-08  6.43175E-15  4.11265E-13
  1.250E+01  1.18520E-02  1.20856E-08  1.10248E-08  3.52836E-15  4.18771E-13
  1.275E+01  1.23288E-02  1.19619E-08  1.09937E-08  4.73211E-16  4.26226E-13
  1.300E+01  1.28150E-02  1.18370E-08  1.09621E-08 -2.73400E-15  4.33629E-13
  1.325E+01  1.33104E-02  1.17110E-08  1.09300E-08 -6.09345E-15  4.40978E-13
  1.350E+01  1.38150E-02  1.15840E-08  1.08973E-08 -9.60524E-15  4.48273E-13
  1.375E+01  1.43290E-02  1.14560E-08  1.08641E-08 -1.32693E-14  4.55514E-13
  1.400E+01  1.48521E-02  1.13272E-08  1.08304E-08 -1.70856E-14  4.62699E-13
  1.425E+01  1.53845E-02  1.11974E-08  1.07962E-08 -2.10539E-14  4.69827E-13
  1.450E+01  1.59262E-02  1.10669E-08  1.07616E-08 -2.51738E-14  4.76899E-13
  1.475E+01  1.64770E-02  1.09356E-08  1.07264E-08 -2.94450E-14  4.83913E-13
  1.500E+01  1.70371E-02  1.08036E-08  1.06907E-08 -3.38670E-14  4.90869E-13
