 #  Scattering amplitudes (in cm)      MU=(1-cos(TH))/2
 #  Z =   8,   projectile: electron
 #  Kinetic energy = 1.08000E+02 eV
 #
 # TH (deg)      MU          Re(F)        Im(F)        Re(G)        Im(G)
 #--------------------------------------------------------------------------
  0.000E+00  0.00000E+00  1.02860E-08  1.02284E-08  0.00000E+00  0.00000E+00
  1.000E-04  7.61557E-13  1.02860E-08  1.02284E-08 -2.26314E-18  5.52435E-19
  1.250E-04  1.18994E-12  1.02860E-08  1.02284E-08 -2.82893E-18  6.90544E-19
  1.500E-04  1.71346E-12  1.02860E-08  1.02284E-08 -3.39471E-18  8.28653E-19
  1.750E-04  2.33225E-12  1.02860E-08  1.02284E-08 -3.96050E-18  9.66762E-19
  2.000E-04  3.04617E-12  1.02860E-08  1.02284E-08 -4.52628E-18  1.10487E-18
  2.250E-04  3.85530E-12  1.02860E-08  1.02284E-08 -5.09207E-18  1.24298E-18
  2.500E-04  4.75964E-12  1.02860E-08  1.02284E-08 -5.65785E-18  1.38109E-18
  2.750E-04  5.75917E-12  1.02860E-08  1.02284E-08 -6.22364E-18  1.51920E-18
  3.000E-04  6.85391E-12  1.02860E-08  1.02284E-08 -6.78942E-18  1.65731E-18
  3.250E-04  8.04379E-12  1.02860E-08  1.02284E-08 -7.35521E-18  1.79541E-18
  3.500E-04  9.32893E-12  1.02860E-08  1.02284E-08 -7.92099E-18  1.93352E-18
  3.750E-04  1.07092E-11  1.02860E-08  1.02284E-08 -8.48678E-18  2.07163E-18
  4.000E-04  1.21847E-11  1.02860E-08  1.02284E-08 -9.05256E-18  2.20974E-18
  4.250E-04  1.37554E-11  1.02860E-08  1.02284E-08 -9.61835E-18  2.34785E-18
  4.500E-04  1.54213E-11  1.02860E-08  1.02284E-08 -1.01841E-17  2.48596E-18
  4.750E-04  1.71823E-11  1.02860E-08  1.02284E-08 -1.07499E-17  2.62407E-18
  5.000E-04  1.90386E-11  1.02860E-08  1.02284E-08 -1.13157E-17  2.76218E-18
  5.250E-04  2.09900E-11  1.02860E-08  1.02284E-08 -1.18815E-17  2.90028E-18
  5.500E-04  2.30367E-11  1.02860E-08  1.02284E-08 -1.24473E-17  3.03839E-18
  5.750E-04  2.51785E-11  1.02860E-08  1.02284E-08 -1.30131E-17  3.17650E-18
  6.000E-04  2.74156E-11  1.02860E-08  1.02284E-08 -1.35788E-17  3.31461E-18
  6.250E-04  2.97478E-11  1.02860E-08  1.02284E-08 -1.41446E-17  3.45272E-18
  6.500E-04  3.21752E-11  1.02860E-08  1.02284E-08 -1.47104E-17  3.59083E-18
  6.750E-04  3.46979E-11  1.02860E-08  1.02284E-08 -1.52762E-17  3.72894E-18
  7.000E-04  3.73157E-11  1.02860E-08  1.02284E-08 -1.58420E-17  3.86705E-18
  7.250E-04  4.00286E-11  1.02860E-08  1.02284E-08 -1.64078E-17  4.00516E-18
  7.500E-04  4.28368E-11  1.02860E-08  1.02284E-08 -1.69736E-17  4.14326E-18
  7.750E-04  4.57402E-11  1.02860E-08  1.02284E-08 -1.75393E-17  4.28137E-18
  8.000E-04  4.87388E-11  1.02860E-08  1.02284E-08 -1.81051E-17  4.41948E-18
  8.250E-04  5.18325E-11  1.02860E-08  1.02284E-08 -1.86709E-17  4.55759E-18
  8.500E-04  5.50215E-11  1.02860E-08  1.02284E-08 -1.92367E-17  4.69570E-18
  8.750E-04  5.83057E-11  1.02860E-08  1.02284E-08 -1.98025E-17  4.83381E-18
  9.000E-04  6.16850E-11  1.02860E-08  1.02284E-08 -2.03683E-17  4.97192E-18
  9.250E-04  6.51595E-11  1.02860E-08  1.02284E-08 -2.09340E-17  5.11003E-18
  9.500E-04  6.87293E-11  1.02860E-08  1.02284E-08 -2.14998E-17  5.24813E-18
  9.750E-04  7.23943E-11  1.02860E-08  1.02284E-08 -2.20656E-17  5.38624E-18
  1.000E-03  7.61544E-11  1.02860E-08  1.02284E-08 -2.26314E-17  5.52435E-18
  1.250E-03  1.18991E-10  1.02860E-08  1.02284E-08 -2.82893E-17  6.90544E-18
  1.500E-03  1.71347E-10  1.02860E-08  1.02284E-08 -3.39471E-17  8.28653E-18
  1.750E-03  2.33223E-10  1.02860E-08  1.02284E-08 -3.96050E-17  9.66762E-18
  2.000E-03  3.04617E-10  1.02860E-08  1.02284E-08 -4.52628E-17  1.10487E-17
  2.250E-03  3.85531E-10  1.02860E-08  1.02284E-08 -5.09207E-17  1.24298E-17
  2.500E-03  4.75965E-10  1.02860E-08  1.02284E-08 -5.65785E-17  1.38109E-17
  2.750E-03  5.75917E-10  1.02860E-08  1.02284E-08 -6.22364E-17  1.51920E-17
  3.000E-03  6.85389E-10  1.02860E-08  1.02284E-08 -6.78942E-17  1.65731E-17
  3.250E-03  8.04380E-10  1.02860E-08  1.02284E-08 -7.35521E-17  1.79541E-17
  3.500E-03  9.32891E-10  1.02860E-08  1.02284E-08 -7.92099E-17  1.93352E-17
  3.750E-03  1.07092E-09  1.02860E-08  1.02284E-08 -8.48678E-17  2.07163E-17
  4.000E-03  1.21847E-09  1.02860E-08  1.02284E-08 -9.05256E-17  2.20974E-17
  4.250E-03  1.37554E-09  1.02860E-08  1.02284E-08 -9.61835E-17  2.34785E-17
  4.500E-03  1.54213E-09  1.02860E-08  1.02284E-08 -1.01841E-16  2.48596E-17
  4.750E-03  1.71823E-09  1.02860E-08  1.02284E-08 -1.07499E-16  2.62407E-17
  5.000E-03  1.90386E-09  1.02860E-08  1.02284E-08 -1.13157E-16  2.76218E-17
  5.250E-03  2.09900E-09  1.02860E-08  1.02284E-08 -1.18815E-16  2.90028E-17
  5.500E-03  2.30367E-09  1.02860E-08  1.02284E-08 -1.24473E-16  3.03839E-17
  5.750E-03  2.51785E-09  1.02860E-08  1.02284E-08 -1.30131E-16  3.17650E-17
  6.000E-03  2.74156E-09  1.02860E-08  1.02284E-08 -1.35788E-16  3.31461E-17
  6.250E-03  2.97478E-09  1.02860E-08  1.02284E-08 -1.41446E-16  3.45272E-17
  6.500E-03  3.21752E-09  1.02860E-08  1.02284E-08 -1.47104E-16  3.59083E-17
  6.750E-03  3.46978E-09  1.02860E-08  1.02284E-08 -1.52762E-16  3.72894E-17
  7.000E-03  3.73156E-09  1.02860E-08  1.02284E-08 -1.58420E-16  3.86705E-17
  7.250E-03  4.00286E-09  1.02860E-08  1.02284E-08 -1.64078E-16  4.00516E-17
  7.500E-03  4.28368E-09  1.02860E-08  1.02284E-08 -1.69736E-16  4.14326E-17
  7.750E-03  4.57402E-09  1.02860E-08  1.02284E-08 -1.75393E-16  4.28137E-17
  8.000E-03  4.87388E-09  1.02860E-08  1.02284E-08 -1.81051E-16  4.41948E-17
  8.250E-03  5.18326E-09  1.02860E-08  1.02284E-08 -1.86709E-16  4.55759E-17
  8.500E-03  5.50215E-09  1.02860E-08  1.02284E-08 -1.92367E-16  4.69570E-17
  8.750E-03  5.83057E-09  1.02860E-08  1.02284E-08 -1.98025E-16  4.83381E-17
  9.000E-03  6.16850E-09  1.02860E-08  1.02284E-08 -2.03683E-16  4.97192E-17
  9.250E-03  6.51596E-09  1.02860E-08  1.02284E-08 -2.09341E-16  5.11003E-17
  9.500E-03  6.87293E-09  1.02860E-08  1.02284E-08 -2.14998E-16  5.24813E-17
  9.750E-03  7.23942E-09  1.02860E-08  1.02284E-08 -2.20656E-16  5.38624E-17
  1.000E-02  7.61544E-09  1.02860E-08  1.02284E-08 -2.26314E-16  5.52435E-17
  1.250E-02  1.18991E-08  1.02860E-08  1.02284E-08 -2.82893E-16  6.90544E-17
  1.500E-02  1.71347E-08  1.02860E-08  1.02284E-08 -3.39471E-16  8.28653E-17
  1.750E-02  2.33223E-08  1.02860E-08  1.02284E-08 -3.96050E-16  9.66761E-17
  2.000E-02  3.04617E-08  1.02860E-08  1.02284E-08 -4.52628E-16  1.10487E-16
  2.250E-02  3.85531E-08  1.02860E-08  1.02284E-08 -5.09207E-16  1.24298E-16
  2.500E-02  4.75965E-08  1.02860E-08  1.02284E-08 -5.65785E-16  1.38109E-16
  2.750E-02  5.75917E-08  1.02860E-08  1.02284E-08 -6.22364E-16  1.51920E-16
  3.000E-02  6.85389E-08  1.02860E-08  1.02284E-08 -6.78943E-16  1.65730E-16
  3.250E-02  8.04380E-08  1.02860E-08  1.02284E-08 -7.35521E-16  1.79541E-16
  3.500E-02  9.32891E-08  1.02860E-08  1.02284E-08 -7.92100E-16  1.93352E-16
  3.750E-02  1.07092E-07  1.02860E-08  1.02284E-08 -8.48679E-16  2.07163E-16
  4.000E-02  1.21847E-07  1.02860E-08  1.02284E-08 -9.05258E-16  2.20974E-16
  4.250E-02  1.37554E-07  1.02860E-08  1.02284E-08 -9.61837E-16  2.34784E-16
  4.500E-02  1.54213E-07  1.02860E-08  1.02284E-08 -1.01842E-15  2.48595E-16
  4.750E-02  1.71823E-07  1.02860E-08  1.02284E-08 -1.07499E-15  2.62406E-16
  5.000E-02  1.90386E-07  1.02860E-08  1.02284E-08 -1.13157E-15  2.76217E-16
  5.250E-02  2.09900E-07  1.02860E-08  1.02284E-08 -1.18815E-15  2.90027E-16
  5.500E-02  2.30367E-07  1.02860E-08  1.02284E-08 -1.24473E-15  3.03838E-16
  5.750E-02  2.51785E-07  1.02860E-08  1.02284E-08 -1.30131E-15  3.17649E-16
  6.000E-02  2.74156E-07  1.02860E-08  1.02284E-08 -1.35789E-15  3.31459E-16
  6.250E-02  2.97478E-07  1.02860E-08  1.02284E-08 -1.41447E-15  3.45270E-16
  6.500E-02  3.21752E-07  1.02860E-08  1.02284E-08 -1.47105E-15  3.59081E-16
  6.750E-02  3.46978E-07  1.02860E-08  1.02284E-08 -1.52763E-15  3.72891E-16
  7.000E-02  3.73156E-07  1.02860E-08  1.02284E-08 -1.58421E-15  3.86702E-16
  7.250E-02  4.00286E-07  1.02860E-08  1.02284E-08 -1.64079E-15  4.00512E-16
  7.500E-02  4.28368E-07  1.02859E-08  1.02284E-08 -1.69737E-15  4.14323E-16
  7.750E-02  4.57402E-07  1.02859E-08  1.02284E-08 -1.75395E-15  4.28133E-16
  8.000E-02  4.87388E-07  1.02859E-08  1.02284E-08 -1.81053E-15  4.41944E-16
  8.250E-02  5.18325E-07  1.02859E-08  1.02284E-08 -1.86711E-15  4.55754E-16
  8.500E-02  5.50215E-07  1.02859E-08  1.02284E-08 -1.92368E-15  4.69565E-16
  8.750E-02  5.83057E-07  1.02859E-08  1.02284E-08 -1.98026E-15  4.83375E-16
  9.000E-02  6.16850E-07  1.02859E-08  1.02284E-08 -2.03684E-15  4.97186E-16
  9.250E-02  6.51596E-07  1.02859E-08  1.02284E-08 -2.09343E-15  5.10996E-16
  9.500E-02  6.87293E-07  1.02859E-08  1.02284E-08 -2.15001E-15  5.24806E-16
  9.750E-02  7.23942E-07  1.02859E-08  1.02284E-08 -2.20659E-15  5.38617E-16
  1.000E-01  7.61543E-07  1.02859E-08  1.02284E-08 -2.26317E-15  5.52427E-16
  1.250E-01  1.18991E-06  1.02858E-08  1.02284E-08 -2.82898E-15  6.90528E-16
  1.500E-01  1.71347E-06  1.02857E-08  1.02284E-08 -3.39480E-15  8.28625E-16
  1.750E-01  2.33223E-06  1.02856E-08  1.02283E-08 -3.96063E-15  9.66717E-16
  2.000E-01  3.04617E-06  1.02855E-08  1.02283E-08 -4.52649E-15  1.10480E-15
  2.250E-01  3.85531E-06  1.02854E-08  1.02283E-08 -5.09236E-15  1.24289E-15
  2.500E-01  4.75964E-06  1.02852E-08  1.02282E-08 -5.65825E-15  1.38096E-15
  2.750E-01  5.75916E-06  1.02851E-08  1.02282E-08 -6.22417E-15  1.51902E-15
  3.000E-01  6.85388E-06  1.02849E-08  1.02281E-08 -6.79011E-15  1.65708E-15
  3.250E-01  8.04378E-06  1.02847E-08  1.02281E-08 -7.35608E-15  1.79513E-15
  3.500E-01  9.32888E-06  1.02845E-08  1.02280E-08 -7.92209E-15  1.93317E-15
  3.750E-01  1.07092E-05  1.02842E-08  1.02279E-08 -8.48812E-15  2.07120E-15
  4.000E-01  1.21846E-05  1.02840E-08  1.02279E-08 -9.05420E-15  2.20921E-15
  4.250E-01  1.37553E-05  1.02837E-08  1.02278E-08 -9.62031E-15  2.34722E-15
  4.500E-01  1.54212E-05  1.02834E-08  1.02277E-08 -1.01865E-14  2.48521E-15
  4.750E-01  1.71822E-05  1.02832E-08  1.02276E-08 -1.07527E-14  2.62318E-15
  5.000E-01  1.90385E-05  1.02828E-08  1.02276E-08 -1.13189E-14  2.76114E-15
  5.250E-01  2.09899E-05  1.02825E-08  1.02275E-08 -1.18852E-14  2.89909E-15
  5.500E-01  2.30365E-05  1.02822E-08  1.02274E-08 -1.24515E-14  3.03702E-15
  5.750E-01  2.51783E-05  1.02818E-08  1.02273E-08 -1.30179E-14  3.17493E-15
  6.000E-01  2.74153E-05  1.02814E-08  1.02272E-08 -1.35844E-14  3.31283E-15
  6.250E-01  2.97475E-05  1.02811E-08  1.02271E-08 -1.41509E-14  3.45070E-15
  6.500E-01  3.21749E-05  1.02807E-08  1.02269E-08 -1.47174E-14  3.58856E-15
  6.750E-01  3.46974E-05  1.02802E-08  1.02268E-08 -1.52840E-14  3.72640E-15
  7.000E-01  3.73152E-05  1.02798E-08  1.02267E-08 -1.58507E-14  3.86421E-15
  7.250E-01  4.00281E-05  1.02793E-08  1.02266E-08 -1.64175E-14  4.00201E-15
  7.500E-01  4.28362E-05  1.02789E-08  1.02264E-08 -1.69843E-14  4.13978E-15
  7.750E-01  4.57395E-05  1.02784E-08  1.02263E-08 -1.75512E-14  4.27753E-15
  8.000E-01  4.87380E-05  1.02779E-08  1.02262E-08 -1.81182E-14  4.41525E-15
  8.250E-01  5.18317E-05  1.02774E-08  1.02260E-08 -1.86852E-14  4.55295E-15
  8.500E-01  5.50205E-05  1.02768E-08  1.02259E-08 -1.92524E-14  4.69062E-15
  8.750E-01  5.83045E-05  1.02763E-08  1.02257E-08 -1.98196E-14  4.82827E-15
  9.000E-01  6.16838E-05  1.02757E-08  1.02256E-08 -2.03869E-14  4.96589E-15
  9.250E-01  6.51582E-05  1.02752E-08  1.02254E-08 -2.09543E-14  5.10348E-15
  9.500E-01  6.87277E-05  1.02746E-08  1.02252E-08 -2.15217E-14  5.24105E-15
  9.750E-01  7.23925E-05  1.02739E-08  1.02251E-08 -2.20893E-14  5.37858E-15
  1.000E+00  7.61524E-05  1.02733E-08  1.02249E-08 -2.26569E-14  5.51609E-15
  1.100E+00  9.21439E-05  1.02707E-08  1.02241E-08 -2.49285E-14  6.06579E-15
  1.200E+00  1.09658E-04  1.02677E-08  1.02233E-08 -2.72018E-14  6.61494E-15
  1.300E+00  1.28695E-04  1.02646E-08  1.02224E-08 -2.94769E-14  7.16350E-15
  1.400E+00  1.49255E-04  1.02611E-08  1.02215E-08 -3.17540E-14  7.71141E-15
  1.500E+00  1.71338E-04  1.02575E-08  1.02204E-08 -3.40332E-14  8.25864E-15
  1.600E+00  1.94942E-04  1.02535E-08  1.02193E-08 -3.63147E-14  8.80511E-15
  1.700E+00  2.20070E-04  1.02494E-08  1.02182E-08 -3.85986E-14  9.35080E-15
  1.800E+00  2.46720E-04  1.02449E-08  1.02169E-08 -4.08852E-14  9.89564E-15
  1.900E+00  2.74892E-04  1.02402E-08  1.02156E-08 -4.31745E-14  1.04396E-14
  2.000E+00  3.04586E-04  1.02353E-08  1.02142E-08 -4.54666E-14  1.09826E-14
  2.100E+00  3.35803E-04  1.02301E-08  1.02127E-08 -4.77618E-14  1.15246E-14
  2.200E+00  3.68542E-04  1.02247E-08  1.02112E-08 -5.00602E-14  1.20656E-14
  2.300E+00  4.02802E-04  1.02190E-08  1.02096E-08 -5.23620E-14  1.26055E-14
  2.400E+00  4.38585E-04  1.02131E-08  1.02079E-08 -5.46672E-14  1.31443E-14
  2.500E+00  4.75889E-04  1.02069E-08  1.02062E-08 -5.69761E-14  1.36818E-14
  2.600E+00  5.14715E-04  1.02005E-08  1.02044E-08 -5.92887E-14  1.42181E-14
  2.700E+00  5.55063E-04  1.01938E-08  1.02025E-08 -6.16053E-14  1.47532E-14
  2.800E+00  5.96931E-04  1.01869E-08  1.02006E-08 -6.39259E-14  1.52869E-14
  2.900E+00  6.40321E-04  1.01797E-08  1.01985E-08 -6.62508E-14  1.58192E-14
  3.000E+00  6.85233E-04  1.01723E-08  1.01964E-08 -6.85800E-14  1.63501E-14
  3.100E+00  7.31665E-04  1.01646E-08  1.01943E-08 -7.09138E-14  1.68795E-14
  3.200E+00  7.79618E-04  1.01567E-08  1.01920E-08 -7.32522E-14  1.74074E-14
  3.300E+00  8.29092E-04  1.01485E-08  1.01897E-08 -7.55954E-14  1.79337E-14
  3.400E+00  8.80086E-04  1.01401E-08  1.01873E-08 -7.79436E-14  1.84584E-14
  3.500E+00  9.32601E-04  1.01315E-08  1.01849E-08 -8.02969E-14  1.89814E-14
  3.600E+00  9.86636E-04  1.01226E-08  1.01824E-08 -8.26554E-14  1.95027E-14
  3.700E+00  1.04219E-03  1.01134E-08  1.01798E-08 -8.50192E-14  2.00221E-14
  3.800E+00  1.09927E-03  1.01041E-08  1.01771E-08 -8.73886E-14  2.05398E-14
  3.900E+00  1.15786E-03  1.00945E-08  1.01744E-08 -8.97637E-14  2.10556E-14
  4.000E+00  1.21797E-03  1.00846E-08  1.01716E-08 -9.21445E-14  2.15695E-14
  4.100E+00  1.27961E-03  1.00745E-08  1.01687E-08 -9.45313E-14  2.20814E-14
  4.200E+00  1.34276E-03  1.00642E-08  1.01658E-08 -9.69241E-14  2.25913E-14
  4.300E+00  1.40743E-03  1.00536E-08  1.01628E-08 -9.93232E-14  2.30991E-14
  4.400E+00  1.47362E-03  1.00428E-08  1.01597E-08 -1.01729E-13  2.36048E-14
  4.500E+00  1.54133E-03  1.00317E-08  1.01565E-08 -1.04140E-13  2.41084E-14
  4.600E+00  1.61056E-03  1.00204E-08  1.01533E-08 -1.06559E-13  2.46097E-14
  4.700E+00  1.68131E-03  1.00089E-08  1.01500E-08 -1.08984E-13  2.51088E-14
  4.800E+00  1.75357E-03  9.99717E-09  1.01466E-08 -1.11416E-13  2.56056E-14
  4.900E+00  1.82735E-03  9.98517E-09  1.01432E-08 -1.13856E-13  2.61000E-14
  5.000E+00  1.90265E-03  9.97295E-09  1.01397E-08 -1.16302E-13  2.65920E-14
  5.100E+00  1.97947E-03  9.96049E-09  1.01361E-08 -1.18756E-13  2.70816E-14
  5.200E+00  2.05780E-03  9.94781E-09  1.01325E-08 -1.21217E-13  2.75686E-14
  5.300E+00  2.13765E-03  9.93489E-09  1.01288E-08 -1.23685E-13  2.80531E-14
  5.400E+00  2.21902E-03  9.92174E-09  1.01250E-08 -1.26162E-13  2.85351E-14
  5.500E+00  2.30190E-03  9.90836E-09  1.01211E-08 -1.28646E-13  2.90143E-14
  5.600E+00  2.38630E-03  9.89475E-09  1.01172E-08 -1.31138E-13  2.94909E-14
  5.700E+00  2.47222E-03  9.88092E-09  1.01132E-08 -1.33638E-13  2.99648E-14
  5.800E+00  2.55965E-03  9.86686E-09  1.01092E-08 -1.36146E-13  3.04358E-14
  5.900E+00  2.64859E-03  9.85258E-09  1.01051E-08 -1.38663E-13  3.09041E-14
  6.000E+00  2.73905E-03  9.83807E-09  1.01009E-08 -1.41188E-13  3.13694E-14
  6.100E+00  2.83103E-03  9.82334E-09  1.00966E-08 -1.43721E-13  3.18319E-14
  6.200E+00  2.92452E-03  9.80838E-09  1.00923E-08 -1.46263E-13  3.22913E-14
  6.300E+00  3.01952E-03  9.79321E-09  1.00879E-08 -1.48814E-13  3.27478E-14
  6.400E+00  3.11604E-03  9.77781E-09  1.00834E-08 -1.51374E-13  3.32011E-14
  6.500E+00  3.21407E-03  9.76219E-09  1.00788E-08 -1.53943E-13  3.36514E-14
  6.600E+00  3.31362E-03  9.74636E-09  1.00742E-08 -1.56521E-13  3.40985E-14
  6.700E+00  3.41468E-03  9.73031E-09  1.00695E-08 -1.59109E-13  3.45424E-14
  6.800E+00  3.51725E-03  9.71404E-09  1.00648E-08 -1.61706E-13  3.49830E-14
  6.900E+00  3.62133E-03  9.69756E-09  1.00600E-08 -1.64312E-13  3.54204E-14
  7.000E+00  3.72692E-03  9.68087E-09  1.00551E-08 -1.66928E-13  3.58543E-14
  7.100E+00  3.83403E-03  9.66396E-09  1.00501E-08 -1.69553E-13  3.62849E-14
  7.200E+00  3.94265E-03  9.64684E-09  1.00451E-08 -1.72189E-13  3.67121E-14
  7.300E+00  4.05278E-03  9.62950E-09  1.00400E-08 -1.74834E-13  3.71358E-14
  7.400E+00  4.16442E-03  9.61196E-09  1.00349E-08 -1.77490E-13  3.75559E-14
  7.500E+00  4.27757E-03  9.59421E-09  1.00297E-08 -1.80156E-13  3.79725E-14
  7.600E+00  4.39223E-03  9.57626E-09  1.00244E-08 -1.82831E-13  3.83854E-14
  7.700E+00  4.50840E-03  9.55809E-09  1.00190E-08 -1.85518E-13  3.87947E-14
  7.800E+00  4.62608E-03  9.53973E-09  1.00136E-08 -1.88215E-13  3.92003E-14
  7.900E+00  4.74527E-03  9.52116E-09  1.00081E-08 -1.90922E-13  3.96021E-14
  8.000E+00  4.86597E-03  9.50238E-09  1.00025E-08 -1.93640E-13  4.00001E-14
  8.100E+00  4.98817E-03  9.48341E-09  9.99688E-09 -1.96369E-13  4.03942E-14
  8.200E+00  5.11188E-03  9.46423E-09  9.99118E-09 -1.99109E-13  4.07844E-14
  8.300E+00  5.23711E-03  9.44486E-09  9.98541E-09 -2.01859E-13  4.11708E-14
  8.400E+00  5.36383E-03  9.42529E-09  9.97958E-09 -2.04621E-13  4.15531E-14
  8.500E+00  5.49207E-03  9.40552E-09  9.97368E-09 -2.07394E-13  4.19314E-14
  8.600E+00  5.62181E-03  9.38556E-09  9.96771E-09 -2.10178E-13  4.23056E-14
  8.700E+00  5.75306E-03  9.36540E-09  9.96168E-09 -2.12974E-13  4.26757E-14
  8.800E+00  5.88581E-03  9.34505E-09  9.95558E-09 -2.15781E-13  4.30416E-14
  8.900E+00  6.02007E-03  9.32451E-09  9.94941E-09 -2.18600E-13  4.34034E-14
  9.000E+00  6.15583E-03  9.30378E-09  9.94318E-09 -2.21430E-13  4.37608E-14
  9.100E+00  6.29310E-03  9.28286E-09  9.93688E-09 -2.24272E-13  4.41140E-14
  9.200E+00  6.43187E-03  9.26175E-09  9.93051E-09 -2.27126E-13  4.44629E-14
  9.300E+00  6.57214E-03  9.24046E-09  9.92408E-09 -2.29992E-13  4.48073E-14
  9.400E+00  6.71392E-03  9.21898E-09  9.91758E-09 -2.32870E-13  4.51473E-14
  9.500E+00  6.85720E-03  9.19732E-09  9.91101E-09 -2.35759E-13  4.54829E-14
  9.600E+00  7.00198E-03  9.17548E-09  9.90438E-09 -2.38661E-13  4.58139E-14
  9.700E+00  7.14827E-03  9.15345E-09  9.89769E-09 -2.41576E-13  4.61404E-14
  9.800E+00  7.29605E-03  9.13125E-09  9.89092E-09 -2.44502E-13  4.64623E-14
  9.900E+00  7.44534E-03  9.10887E-09  9.88410E-09 -2.47441E-13  4.67795E-14
  1.000E+01  7.59612E-03  9.08631E-09  9.87720E-09 -2.50393E-13  4.70921E-14
  1.025E+01  7.97965E-03  9.02915E-09  9.85968E-09 -2.57827E-13  4.78526E-14
  1.050E+01  8.37255E-03  8.97092E-09  9.84176E-09 -2.65340E-13  4.85830E-14
  1.075E+01  8.77480E-03  8.91164E-09  9.82343E-09 -2.72934E-13  4.92824E-14
  1.100E+01  9.18641E-03  8.85133E-09  9.80469E-09 -2.80610E-13  4.99503E-14
  1.125E+01  9.60736E-03  8.79001E-09  9.78556E-09 -2.88369E-13  5.05860E-14
  1.150E+01  1.00376E-02  8.72771E-09  9.76602E-09 -2.96212E-13  5.11888E-14
  1.175E+01  1.04773E-02  8.66444E-09  9.74609E-09 -3.04140E-13  5.17581E-14
  1.200E+01  1.09262E-02  8.60024E-09  9.72576E-09 -3.12153E-13  5.22933E-14
  1.225E+01  1.13844E-02  8.53512E-09  9.70505E-09 -3.20252E-13  5.27938E-14
  1.250E+01  1.18520E-02  8.46911E-09  9.68394E-09 -3.28439E-13  5.32589E-14
  1.275E+01  1.23288E-02  8.40222E-09  9.66244E-09 -3.36713E-13  5.36880E-14
  1.300E+01  1.28150E-02  8.33450E-09  9.64055E-09 -3.45076E-13  5.40805E-14
  1.325E+01  1.33104E-02  8.26595E-09  9.61828E-09 -3.53528E-13  5.44358E-14
  1.350E+01  1.38150E-02  8.19660E-09  9.59563E-09 -3.62070E-13  5.47533E-14
  1.375E+01  1.43290E-02  8.12648E-09  9.57260E-09 -3.70702E-13  5.50324E-14
  1.400E+01  1.48521E-02  8.05561E-09  9.54919E-09 -3.79424E-13  5.52726E-14
  1.425E+01  1.53845E-02  7.98400E-09  9.52541E-09 -3.88238E-13  5.54731E-14
  1.450E+01  1.59262E-02  7.91170E-09  9.50125E-09 -3.97142E-13  5.56336E-14
  1.475E+01  1.64770E-02  7.83871E-09  9.47673E-09 -4.06139E-13  5.57534E-14
  1.500E+01  1.70371E-02  7.76507E-09  9.45183E-09 -4.15227E-13  5.58319E-14
