 #
 # Subroutine ELSEPA. Elastic scattering of electrons and positrons
 #                    by neutral atoms and positive ions
 #
 # Projectile: electron
 # Kinetic energy = 3.00000E+02 eV = 1.10248E+01 a.u.
 #
 # Element:  C,  Z =   6,  atomic weight = 1.20107E+01 g/mol
 #
 # Nuclear model: point charge
 #
 # Number of electrons =  6
 #
 # Electron density: Read from file z_006.den   
 #                   Number of data points =  725
 #                   Volume integral = 6.00000E+00
 #
 # Furness-McCarthy exchange potential
 #
 # Total elastic cross section = 1.40572E-16 cm**2 = 5.01992E+00 a0**2
 # 1st transport cross section = 2.72648E-17 cm**2 = 9.73645E-01 a0**2
 # 2nd transport cross section = 4.63740E-17 cm**2 = 1.65605E+00 a0**2
 #
 #
 # Differential cross section:                       MU=(1-COS(THETA))/2
 #
 #  THETA        MU          DCS          DCS        Sherman      error
 #  (deg)                 (cm**2/sr)   (a0**2/sr)    function
 #----------------------------------------------------------------------
  0.000E+00  0.00000E+00  4.61766E-16  1.64900E+01  0.00000E+00  1.0E-07
  1.000E-04  7.61557E-13  4.61766E-16  1.64900E+01  1.97539E-10  1.0E-07
  1.250E-04  1.18994E-12  4.61766E-16  1.64900E+01  2.46924E-10  1.0E-07
  1.500E-04  1.71346E-12  4.61766E-16  1.64900E+01  2.96309E-10  1.0E-07
  1.750E-04  2.33225E-12  4.61766E-16  1.64900E+01  3.45694E-10  1.0E-07
  2.000E-04  3.04617E-12  4.61766E-16  1.64900E+01  3.95079E-10  1.0E-07
  2.250E-04  3.85530E-12  4.61766E-16  1.64900E+01  4.44464E-10  1.0E-07
  2.500E-04  4.75964E-12  4.61766E-16  1.64900E+01  4.93848E-10  1.0E-07
  2.750E-04  5.75917E-12  4.61766E-16  1.64900E+01  5.43233E-10  1.0E-07
  3.000E-04  6.85391E-12  4.61766E-16  1.64900E+01  5.92618E-10  1.0E-07
  3.250E-04  8.04379E-12  4.61766E-16  1.64900E+01  6.42003E-10  1.0E-07
  3.500E-04  9.32893E-12  4.61766E-16  1.64900E+01  6.91388E-10  1.0E-07
  3.750E-04  1.07092E-11  4.61766E-16  1.64900E+01  7.40773E-10  1.0E-07
  4.000E-04  1.21847E-11  4.61766E-16  1.64900E+01  7.90157E-10  1.0E-07
  4.250E-04  1.37554E-11  4.61766E-16  1.64900E+01  8.39542E-10  1.0E-07
  4.500E-04  1.54213E-11  4.61766E-16  1.64900E+01  8.88927E-10  1.0E-07
  4.750E-04  1.71823E-11  4.61766E-16  1.64900E+01  9.38312E-10  1.0E-07
  5.000E-04  1.90386E-11  4.61766E-16  1.64900E+01  9.87697E-10  1.0E-07
  5.250E-04  2.09900E-11  4.61766E-16  1.64900E+01  1.03708E-09  1.0E-07
  5.500E-04  2.30367E-11  4.61766E-16  1.64900E+01  1.08647E-09  1.0E-07
  5.750E-04  2.51785E-11  4.61766E-16  1.64900E+01  1.13585E-09  1.0E-07
  6.000E-04  2.74156E-11  4.61766E-16  1.64900E+01  1.18524E-09  1.0E-07
  6.250E-04  2.97478E-11  4.61766E-16  1.64900E+01  1.23462E-09  1.0E-07
  6.500E-04  3.21752E-11  4.61766E-16  1.64900E+01  1.28401E-09  1.0E-07
  6.750E-04  3.46979E-11  4.61766E-16  1.64900E+01  1.33339E-09  1.0E-07
  7.000E-04  3.73157E-11  4.61766E-16  1.64900E+01  1.38278E-09  1.0E-07
  7.250E-04  4.00286E-11  4.61766E-16  1.64900E+01  1.43216E-09  1.0E-07
  7.500E-04  4.28368E-11  4.61766E-16  1.64900E+01  1.48155E-09  1.0E-07
  7.750E-04  4.57402E-11  4.61766E-16  1.64900E+01  1.53093E-09  1.0E-07
  8.000E-04  4.87388E-11  4.61766E-16  1.64900E+01  1.58031E-09  1.0E-07
  8.250E-04  5.18325E-11  4.61766E-16  1.64900E+01  1.62970E-09  1.0E-07
  8.500E-04  5.50215E-11  4.61766E-16  1.64900E+01  1.67908E-09  1.0E-07
  8.750E-04  5.83057E-11  4.61766E-16  1.64900E+01  1.72847E-09  1.0E-07
  9.000E-04  6.16850E-11  4.61766E-16  1.64900E+01  1.77785E-09  1.0E-07
  9.250E-04  6.51595E-11  4.61766E-16  1.64900E+01  1.82724E-09  1.0E-07
  9.500E-04  6.87293E-11  4.61766E-16  1.64900E+01  1.87662E-09  1.0E-07
  9.750E-04  7.23943E-11  4.61766E-16  1.64900E+01  1.92601E-09  1.0E-07
  1.000E-03  7.61544E-11  4.61766E-16  1.64900E+01  1.97539E-09  1.0E-07
  1.250E-03  1.18991E-10  4.61766E-16  1.64900E+01  2.46924E-09  1.0E-07
  1.500E-03  1.71347E-10  4.61766E-16  1.64900E+01  2.96309E-09  1.0E-07
  1.750E-03  2.33223E-10  4.61766E-16  1.64900E+01  3.45694E-09  1.0E-07
  2.000E-03  3.04617E-10  4.61766E-16  1.64900E+01  3.95079E-09  1.0E-07
  2.250E-03  3.85531E-10  4.61766E-16  1.64900E+01  4.44464E-09  1.0E-07
  2.500E-03  4.75965E-10  4.61766E-16  1.64900E+01  4.93848E-09  1.0E-07
  2.750E-03  5.75917E-10  4.61766E-16  1.64900E+01  5.43233E-09  1.0E-07
  3.000E-03  6.85389E-10  4.61766E-16  1.64899E+01  5.92618E-09  1.0E-07
  3.250E-03  8.04380E-10  4.61766E-16  1.64899E+01  6.42003E-09  1.0E-07
  3.500E-03  9.32891E-10  4.61766E-16  1.64899E+01  6.91388E-09  1.0E-07
  3.750E-03  1.07092E-09  4.61766E-16  1.64899E+01  7.40773E-09  1.0E-07
  4.000E-03  1.21847E-09  4.61766E-16  1.64899E+01  7.90157E-09  1.0E-07
  4.250E-03  1.37554E-09  4.61766E-16  1.64899E+01  8.39542E-09  1.0E-07
  4.500E-03  1.54213E-09  4.61766E-16  1.64899E+01  8.88927E-09  1.0E-07
  4.750E-03  1.71823E-09  4.61766E-16  1.64899E+01  9.38312E-09  1.0E-07
  5.000E-03  1.90386E-09  4.61766E-16  1.64899E+01  9.87697E-09  1.0E-07
  5.250E-03  2.09900E-09  4.61766E-16  1.64899E+01  1.03708E-08  1.0E-07
  5.500E-03  2.30367E-09  4.61766E-16  1.64899E+01  1.08647E-08  1.0E-07
  5.750E-03  2.51785E-09  4.61766E-16  1.64899E+01  1.13585E-08  1.0E-07
  6.000E-03  2.74156E-09  4.61766E-16  1.64899E+01  1.18524E-08  1.0E-07
  6.250E-03  2.97478E-09  4.61766E-16  1.64899E+01  1.23462E-08  1.0E-07
  6.500E-03  3.21752E-09  4.61766E-16  1.64899E+01  1.28401E-08  1.0E-07
  6.750E-03  3.46978E-09  4.61766E-16  1.64899E+01  1.33339E-08  1.0E-07
  7.000E-03  3.73156E-09  4.61766E-16  1.64899E+01  1.38278E-08  1.0E-07
  7.250E-03  4.00286E-09  4.61766E-16  1.64899E+01  1.43216E-08  1.0E-07
  7.500E-03  4.28368E-09  4.61765E-16  1.64899E+01  1.48155E-08  1.0E-07
  7.750E-03  4.57402E-09  4.61765E-16  1.64899E+01  1.53093E-08  1.0E-07
  8.000E-03  4.87388E-09  4.61765E-16  1.64899E+01  1.58031E-08  1.0E-07
  8.250E-03  5.18326E-09  4.61765E-16  1.64899E+01  1.62970E-08  1.0E-07
  8.500E-03  5.50215E-09  4.61765E-16  1.64899E+01  1.67908E-08  1.0E-07
  8.750E-03  5.83057E-09  4.61765E-16  1.64899E+01  1.72847E-08  1.0E-07
  9.000E-03  6.16850E-09  4.61765E-16  1.64899E+01  1.77785E-08  1.0E-07
  9.250E-03  6.51596E-09  4.61765E-16  1.64899E+01  1.82724E-08  1.0E-07
  9.500E-03  6.87293E-09  4.61765E-16  1.64899E+01  1.87662E-08  1.0E-07
  9.750E-03  7.23942E-09  4.61765E-16  1.64899E+01  1.92601E-08  1.0E-07
  1.000E-02  7.61544E-09  4.61765E-16  1.64899E+01  1.97539E-08  1.0E-07
  1.250E-02  1.18991E-08  4.61765E-16  1.64899E+01  2.46924E-08  1.0E-07
  1.500E-02  1.71347E-08  4.61765E-16  1.64899E+01  2.96309E-08  1.0E-07
  1.750E-02  2.33223E-08  4.61765E-16  1.64899E+01  3.45694E-08  1.0E-07
  2.000E-02  3.04617E-08  4.61765E-16  1.64899E+01  3.95079E-08  1.0E-07
  2.250E-02  3.85531E-08  4.61764E-16  1.64899E+01  4.44464E-08  1.0E-07
  2.500E-02  4.75965E-08  4.61764E-16  1.64899E+01  4.93849E-08  1.0E-07
  2.750E-02  5.75917E-08  4.61764E-16  1.64899E+01  5.43234E-08  1.0E-07
  3.000E-02  6.85389E-08  4.61763E-16  1.64899E+01  5.92619E-08  1.0E-07
  3.250E-02  8.04380E-08  4.61763E-16  1.64898E+01  6.42005E-08  1.0E-07
  3.500E-02  9.32891E-08  4.61762E-16  1.64898E+01  6.91390E-08  1.0E-07
  3.750E-02  1.07092E-07  4.61762E-16  1.64898E+01  7.40775E-08  1.0E-07
  4.000E-02  1.21847E-07  4.61761E-16  1.64898E+01  7.90161E-08  1.0E-07
  4.250E-02  1.37554E-07  4.61761E-16  1.64898E+01  8.39546E-08  1.0E-07
  4.500E-02  1.54213E-07  4.61760E-16  1.64898E+01  8.88932E-08  1.0E-07
  4.750E-02  1.71823E-07  4.61760E-16  1.64897E+01  9.38317E-08  1.0E-07
  5.000E-02  1.90386E-07  4.61759E-16  1.64897E+01  9.87703E-08  1.0E-07
  5.250E-02  2.09900E-07  4.61758E-16  1.64897E+01  1.03709E-07  1.0E-07
  5.500E-02  2.30367E-07  4.61758E-16  1.64897E+01  1.08647E-07  1.0E-07
  5.750E-02  2.51785E-07  4.61757E-16  1.64896E+01  1.13586E-07  1.0E-07
  6.000E-02  2.74156E-07  4.61756E-16  1.64896E+01  1.18525E-07  1.0E-07
  6.250E-02  2.97478E-07  4.61755E-16  1.64896E+01  1.23463E-07  1.0E-07
  6.500E-02  3.21752E-07  4.61754E-16  1.64895E+01  1.28402E-07  1.0E-07
  6.750E-02  3.46978E-07  4.61753E-16  1.64895E+01  1.33341E-07  1.0E-07
  7.000E-02  3.73156E-07  4.61752E-16  1.64895E+01  1.38279E-07  1.0E-07
  7.250E-02  4.00286E-07  4.61752E-16  1.64894E+01  1.43218E-07  1.0E-07
  7.500E-02  4.28368E-07  4.61751E-16  1.64894E+01  1.48157E-07  1.0E-07
  7.750E-02  4.57402E-07  4.61750E-16  1.64894E+01  1.53095E-07  1.0E-07
  8.000E-02  4.87388E-07  4.61748E-16  1.64893E+01  1.58034E-07  1.0E-07
  8.250E-02  5.18325E-07  4.61747E-16  1.64893E+01  1.62973E-07  1.0E-07
  8.500E-02  5.50215E-07  4.61746E-16  1.64893E+01  1.67912E-07  1.0E-07
  8.750E-02  5.83057E-07  4.61745E-16  1.64892E+01  1.72850E-07  1.0E-07
  9.000E-02  6.16850E-07  4.61744E-16  1.64892E+01  1.77789E-07  1.0E-07
  9.250E-02  6.51596E-07  4.61743E-16  1.64891E+01  1.82728E-07  1.0E-07
  9.500E-02  6.87293E-07  4.61741E-16  1.64891E+01  1.87667E-07  1.0E-07
  9.750E-02  7.23942E-07  4.61740E-16  1.64890E+01  1.92606E-07  1.0E-07
  1.000E-01  7.61543E-07  4.61739E-16  1.64890E+01  1.97544E-07  1.0E-07
  1.250E-01  1.18991E-06  4.61724E-16  1.64885E+01  2.46934E-07  1.0E-07
  1.500E-01  1.71347E-06  4.61705E-16  1.64878E+01  2.96326E-07  1.0E-07
  1.750E-01  2.33223E-06  4.61683E-16  1.64870E+01  3.45721E-07  1.0E-07
  2.000E-01  3.04617E-06  4.61658E-16  1.64861E+01  3.95119E-07  1.0E-07
  2.250E-01  3.85531E-06  4.61630E-16  1.64851E+01  4.44521E-07  1.0E-07
  2.500E-01  4.75964E-06  4.61598E-16  1.64840E+01  4.93928E-07  1.0E-07
  2.750E-01  5.75916E-06  4.61562E-16  1.64827E+01  5.43339E-07  1.0E-07
  3.000E-01  6.85388E-06  4.61524E-16  1.64813E+01  5.92755E-07  1.0E-07
  3.250E-01  8.04378E-06  4.61482E-16  1.64798E+01  6.42177E-07  1.0E-07
  3.500E-01  9.32888E-06  4.61437E-16  1.64782E+01  6.91605E-07  1.0E-07
  3.750E-01  1.07092E-05  4.61388E-16  1.64765E+01  7.41040E-07  1.0E-07
  4.000E-01  1.21846E-05  4.61336E-16  1.64746E+01  7.90482E-07  1.0E-07
  4.250E-01  1.37553E-05  4.61280E-16  1.64726E+01  8.39932E-07  1.0E-07
  4.500E-01  1.54212E-05  4.61222E-16  1.64705E+01  8.89389E-07  1.0E-07
  4.750E-01  1.71822E-05  4.61160E-16  1.64683E+01  9.38856E-07  1.0E-07
  5.000E-01  1.90385E-05  4.61094E-16  1.64660E+01  9.88331E-07  1.0E-07
  5.250E-01  2.09899E-05  4.61026E-16  1.64635E+01  1.03782E-06  1.0E-07
  5.500E-01  2.30365E-05  4.60953E-16  1.64609E+01  1.08731E-06  1.0E-07
  5.750E-01  2.51783E-05  4.60878E-16  1.64583E+01  1.13682E-06  1.0E-07
  6.000E-01  2.74153E-05  4.60799E-16  1.64554E+01  1.18633E-06  1.0E-07
  6.250E-01  2.97475E-05  4.60717E-16  1.64525E+01  1.23586E-06  1.0E-07
  6.500E-01  3.21749E-05  4.60632E-16  1.64495E+01  1.28540E-06  1.0E-07
  6.750E-01  3.46974E-05  4.60543E-16  1.64463E+01  1.33495E-06  1.0E-07
  7.000E-01  3.73152E-05  4.60451E-16  1.64430E+01  1.38452E-06  1.0E-07
  7.250E-01  4.00281E-05  4.60356E-16  1.64396E+01  1.43409E-06  1.0E-07
  7.500E-01  4.28362E-05  4.60257E-16  1.64361E+01  1.48369E-06  1.0E-07
  7.750E-01  4.57395E-05  4.60155E-16  1.64324E+01  1.53329E-06  1.0E-07
  8.000E-01  4.87380E-05  4.60050E-16  1.64287E+01  1.58291E-06  1.0E-07
  8.250E-01  5.18317E-05  4.59941E-16  1.64248E+01  1.63255E-06  1.0E-07
  8.500E-01  5.50205E-05  4.59829E-16  1.64208E+01  1.68220E-06  1.0E-07
  8.750E-01  5.83045E-05  4.59714E-16  1.64167E+01  1.73187E-06  1.0E-07
  9.000E-01  6.16838E-05  4.59595E-16  1.64124E+01  1.78155E-06  1.0E-07
  9.250E-01  6.51582E-05  4.59473E-16  1.64081E+01  1.83125E-06  1.0E-07
  9.500E-01  6.87277E-05  4.59348E-16  1.64036E+01  1.88097E-06  1.0E-07
  9.750E-01  7.23925E-05  4.59220E-16  1.63990E+01  1.93071E-06  1.0E-07
  1.000E+00  7.61524E-05  4.59088E-16  1.63943E+01  1.98047E-06  1.0E-07
  1.100E+00  9.21439E-05  4.58528E-16  1.63743E+01  2.17969E-06  1.0E-07
  1.200E+00  1.09658E-04  4.57917E-16  1.63525E+01  2.37924E-06  1.0E-07
  1.300E+00  1.28695E-04  4.57253E-16  1.63288E+01  2.57916E-06  1.0E-07
  1.400E+00  1.49255E-04  4.56537E-16  1.63032E+01  2.77947E-06  1.0E-07
  1.500E+00  1.71338E-04  4.55771E-16  1.62759E+01  2.98021E-06  1.0E-07
  1.600E+00  1.94942E-04  4.54953E-16  1.62467E+01  3.18141E-06  1.0E-07
  1.700E+00  2.20070E-04  4.54085E-16  1.62157E+01  3.38309E-06  1.0E-07
  1.800E+00  2.46720E-04  4.53166E-16  1.61829E+01  3.58529E-06  1.0E-07
  1.900E+00  2.74892E-04  4.52198E-16  1.61483E+01  3.78804E-06  1.0E-07
  2.000E+00  3.04586E-04  4.51181E-16  1.61120E+01  3.99137E-06  1.0E-07
  2.100E+00  3.35803E-04  4.50114E-16  1.60739E+01  4.19530E-06  1.0E-07
  2.200E+00  3.68542E-04  4.49000E-16  1.60341E+01  4.39987E-06  1.0E-07
  2.300E+00  4.02802E-04  4.47837E-16  1.59926E+01  4.60511E-06  1.0E-07
  2.400E+00  4.38585E-04  4.46628E-16  1.59494E+01  4.81106E-06  1.0E-07
  2.500E+00  4.75889E-04  4.45371E-16  1.59045E+01  5.01773E-06  1.0E-07
  2.600E+00  5.14715E-04  4.44069E-16  1.58580E+01  5.22516E-06  1.0E-07
  2.700E+00  5.55063E-04  4.42720E-16  1.58098E+01  5.43338E-06  1.0E-07
  2.800E+00  5.96931E-04  4.41327E-16  1.57601E+01  5.64242E-06  1.0E-07
  2.900E+00  6.40321E-04  4.39889E-16  1.57087E+01  5.85231E-06  1.0E-07
  3.000E+00  6.85233E-04  4.38408E-16  1.56558E+01  6.06309E-06  1.0E-07
  3.100E+00  7.31665E-04  4.36883E-16  1.56014E+01  6.27477E-06  1.0E-07
  3.200E+00  7.79618E-04  4.35317E-16  1.55454E+01  6.48740E-06  1.0E-07
  3.300E+00  8.29092E-04  4.33708E-16  1.54880E+01  6.70100E-06  1.0E-07
  3.400E+00  8.80086E-04  4.32058E-16  1.54291E+01  6.91560E-06  1.0E-07
  3.500E+00  9.32601E-04  4.30368E-16  1.53687E+01  7.13123E-06  1.0E-07
  3.600E+00  9.86636E-04  4.28638E-16  1.53070E+01  7.34792E-06  1.0E-07
  3.700E+00  1.04219E-03  4.26870E-16  1.52438E+01  7.56571E-06  1.0E-07
  3.800E+00  1.09927E-03  4.25063E-16  1.51793E+01  7.78462E-06  1.0E-07
  3.900E+00  1.15786E-03  4.23219E-16  1.51134E+01  8.00468E-06  1.0E-07
  4.000E+00  1.21797E-03  4.21338E-16  1.50463E+01  8.22592E-06  1.0E-07
  4.100E+00  1.27961E-03  4.19422E-16  1.49778E+01  8.44838E-06  1.0E-07
  4.200E+00  1.34276E-03  4.17470E-16  1.49081E+01  8.67208E-06  1.0E-07
  4.300E+00  1.40743E-03  4.15484E-16  1.48372E+01  8.89705E-06  1.0E-07
  4.400E+00  1.47362E-03  4.13465E-16  1.47651E+01  9.12332E-06  1.0E-07
  4.500E+00  1.54133E-03  4.11413E-16  1.46918E+01  9.35093E-06  1.0E-07
  4.600E+00  1.61056E-03  4.09329E-16  1.46174E+01  9.57989E-06  1.0E-07
  4.700E+00  1.68131E-03  4.07214E-16  1.45419E+01  9.81025E-06  1.0E-07
  4.800E+00  1.75357E-03  4.05069E-16  1.44653E+01  1.00420E-05  1.0E-07
  4.900E+00  1.82735E-03  4.02895E-16  1.43876E+01  1.02753E-05  1.0E-07
  5.000E+00  1.90265E-03  4.00692E-16  1.43090E+01  1.05100E-05  1.0E-07
  5.100E+00  1.97947E-03  3.98462E-16  1.42293E+01  1.07462E-05  1.0E-07
  5.200E+00  2.05780E-03  3.96205E-16  1.41487E+01  1.09839E-05  1.0E-07
  5.300E+00  2.13765E-03  3.93922E-16  1.40672E+01  1.12233E-05  1.0E-07
  5.400E+00  2.21902E-03  3.91613E-16  1.39848E+01  1.14642E-05  1.0E-07
  5.500E+00  2.30190E-03  3.89281E-16  1.39015E+01  1.17068E-05  1.0E-07
  5.600E+00  2.38630E-03  3.86925E-16  1.38173E+01  1.19510E-05  1.0E-07
  5.700E+00  2.47222E-03  3.84546E-16  1.37324E+01  1.21969E-05  1.0E-07
  5.800E+00  2.55965E-03  3.82146E-16  1.36467E+01  1.24445E-05  1.0E-07
  5.900E+00  2.64859E-03  3.79725E-16  1.35602E+01  1.26938E-05  1.0E-07
  6.000E+00  2.73905E-03  3.77284E-16  1.34730E+01  1.29449E-05  1.0E-07
  6.100E+00  2.83103E-03  3.74823E-16  1.33852E+01  1.31979E-05  1.0E-07
  6.200E+00  2.92452E-03  3.72344E-16  1.32967E+01  1.34526E-05  1.0E-07
  6.300E+00  3.01952E-03  3.69848E-16  1.32075E+01  1.37093E-05  1.0E-07
  6.400E+00  3.11604E-03  3.67335E-16  1.31178E+01  1.39678E-05  1.0E-07
  6.500E+00  3.21407E-03  3.64807E-16  1.30275E+01  1.42282E-05  1.0E-07
  6.600E+00  3.31362E-03  3.62263E-16  1.29366E+01  1.44905E-05  1.0E-07
  6.700E+00  3.41468E-03  3.59705E-16  1.28453E+01  1.47549E-05  1.0E-07
  6.800E+00  3.51725E-03  3.57134E-16  1.27535E+01  1.50212E-05  1.0E-07
  6.900E+00  3.62133E-03  3.54550E-16  1.26612E+01  1.52896E-05  1.0E-07
  7.000E+00  3.72692E-03  3.51954E-16  1.25685E+01  1.55600E-05  1.0E-07
  7.100E+00  3.83403E-03  3.49347E-16  1.24754E+01  1.58325E-05  1.0E-07
  7.200E+00  3.94265E-03  3.46731E-16  1.23820E+01  1.61071E-05  1.0E-07
  7.300E+00  4.05278E-03  3.44104E-16  1.22882E+01  1.63839E-05  1.0E-07
  7.400E+00  4.16442E-03  3.41470E-16  1.21941E+01  1.66628E-05  1.0E-07
  7.500E+00  4.27757E-03  3.38827E-16  1.20997E+01  1.69439E-05  1.0E-07
  7.600E+00  4.39223E-03  3.36177E-16  1.20051E+01  1.72272E-05  1.0E-07
  7.700E+00  4.50840E-03  3.33521E-16  1.19102E+01  1.75128E-05  1.0E-07
  7.800E+00  4.62608E-03  3.30859E-16  1.18152E+01  1.78007E-05  1.0E-07
  7.900E+00  4.74527E-03  3.28192E-16  1.17200E+01  1.80908E-05  1.0E-07
  8.000E+00  4.86597E-03  3.25521E-16  1.16246E+01  1.83833E-05  1.0E-07
  8.100E+00  4.98817E-03  3.22847E-16  1.15291E+01  1.86781E-05  1.0E-07
  8.200E+00  5.11188E-03  3.20169E-16  1.14335E+01  1.89753E-05  1.0E-07
  8.300E+00  5.23711E-03  3.17490E-16  1.13378E+01  1.92749E-05  1.0E-07
  8.400E+00  5.36383E-03  3.14809E-16  1.12420E+01  1.95770E-05  1.0E-07
  8.500E+00  5.49207E-03  3.12128E-16  1.11463E+01  1.98815E-05  1.0E-07
  8.600E+00  5.62181E-03  3.09446E-16  1.10505E+01  2.01884E-05  1.0E-07
  8.700E+00  5.75306E-03  3.06765E-16  1.09548E+01  2.04979E-05  1.0E-07
  8.800E+00  5.88581E-03  3.04085E-16  1.08591E+01  2.08099E-05  1.0E-07
  8.900E+00  6.02007E-03  3.01407E-16  1.07634E+01  2.11245E-05  1.0E-07
  9.000E+00  6.15583E-03  2.98731E-16  1.06679E+01  2.14416E-05  1.0E-07
  9.100E+00  6.29310E-03  2.96058E-16  1.05724E+01  2.17614E-05  1.0E-07
  9.200E+00  6.43187E-03  2.93389E-16  1.04771E+01  2.20837E-05  1.0E-07
  9.300E+00  6.57214E-03  2.90724E-16  1.03819E+01  2.24087E-05  1.0E-07
  9.400E+00  6.71392E-03  2.88063E-16  1.02869E+01  2.27364E-05  1.0E-07
  9.500E+00  6.85720E-03  2.85408E-16  1.01921E+01  2.30668E-05  1.0E-07
  9.600E+00  7.00198E-03  2.82758E-16  1.00975E+01  2.33998E-05  1.0E-07
  9.700E+00  7.14827E-03  2.80115E-16  1.00031E+01  2.37356E-05  1.0E-07
  9.800E+00  7.29605E-03  2.77479E-16  9.90895E+00  2.40742E-05  1.0E-07
  9.900E+00  7.44534E-03  2.74850E-16  9.81507E+00  2.44156E-05  1.0E-07
  1.000E+01  7.59612E-03  2.72229E-16  9.72146E+00  2.47597E-05  1.0E-07
  1.025E+01  7.97965E-03  2.65713E-16  9.48877E+00  2.56325E-05  1.0E-07
  1.050E+01  8.37255E-03  2.59255E-16  9.25817E+00  2.65232E-05  1.0E-07
  1.075E+01  8.77480E-03  2.52863E-16  9.02990E+00  2.74321E-05  1.0E-07
  1.100E+01  9.18641E-03  2.46542E-16  8.80417E+00  2.83596E-05  1.0E-07
  1.125E+01  9.60736E-03  2.40298E-16  8.58118E+00  2.93058E-05  1.0E-07
  1.150E+01  1.00376E-02  2.34135E-16  8.36112E+00  3.02711E-05  1.0E-07
  1.175E+01  1.04773E-02  2.28060E-16  8.14416E+00  3.12556E-05  1.0E-07
  1.200E+01  1.09262E-02  2.22075E-16  7.93044E+00  3.22595E-05  1.0E-07
  1.225E+01  1.13844E-02  2.16185E-16  7.72011E+00  3.32831E-05  1.0E-07
  1.250E+01  1.18520E-02  2.10393E-16  7.51328E+00  3.43264E-05  1.0E-07
  1.275E+01  1.23288E-02  2.04703E-16  7.31007E+00  3.53897E-05  1.0E-07
  1.300E+01  1.28150E-02  1.99116E-16  7.11055E+00  3.64730E-05  1.0E-07
  1.325E+01  1.33104E-02  1.93635E-16  6.91483E+00  3.75764E-05  1.0E-07
  1.350E+01  1.38150E-02  1.88262E-16  6.72296E+00  3.86999E-05  1.0E-07
  1.375E+01  1.43290E-02  1.82998E-16  6.53499E+00  3.98436E-05  1.0E-07
  1.400E+01  1.48521E-02  1.77846E-16  6.35099E+00  4.10074E-05  1.0E-07
  1.425E+01  1.53845E-02  1.72805E-16  6.17096E+00  4.21914E-05  1.0E-07
  1.450E+01  1.59262E-02  1.67876E-16  5.99496E+00  4.33954E-05  1.0E-07
  1.475E+01  1.64770E-02  1.63060E-16  5.82297E+00  4.46193E-05  1.0E-07
  1.500E+01  1.70371E-02  1.58357E-16  5.65502E+00  4.58629E-05  1.0E-07
  1.525E+01  1.76063E-02  1.53766E-16  5.49109E+00  4.71261E-05  1.0E-07
  1.550E+01  1.81848E-02  1.49288E-16  5.33118E+00  4.84087E-05  1.0E-07
  1.575E+01  1.87724E-02  1.44922E-16  5.17527E+00  4.97103E-05  1.0E-07
