 #  Scattering amplitudes (in cm)      MU=(1-cos(TH))/2
 #  Z =   8,   projectile: electron
 #  Kinetic energy = 1.28000E+02 eV
 #
 # TH (deg)      MU          Re(F)        Im(F)        Re(G)        Im(G)
 #--------------------------------------------------------------------------
  0.000E+00  0.00000E+00  1.08028E-08  9.99059E-09  0.00000E+00  0.00000E+00
  1.000E-04  7.61557E-13  1.08028E-08  9.99059E-09 -1.60708E-18  1.68884E-18
  1.250E-04  1.18994E-12  1.08028E-08  9.99059E-09 -2.00886E-18  2.11105E-18
  1.500E-04  1.71346E-12  1.08028E-08  9.99059E-09 -2.41063E-18  2.53326E-18
  1.750E-04  2.33225E-12  1.08028E-08  9.99059E-09 -2.81240E-18  2.95547E-18
  2.000E-04  3.04617E-12  1.08028E-08  9.99059E-09 -3.21417E-18  3.37768E-18
  2.250E-04  3.85530E-12  1.08028E-08  9.99059E-09 -3.61594E-18  3.79988E-18
  2.500E-04  4.75964E-12  1.08028E-08  9.99059E-09 -4.01771E-18  4.22209E-18
  2.750E-04  5.75917E-12  1.08028E-08  9.99059E-09 -4.41948E-18  4.64430E-18
  3.000E-04  6.85391E-12  1.08028E-08  9.99059E-09 -4.82125E-18  5.06651E-18
  3.250E-04  8.04379E-12  1.08028E-08  9.99059E-09 -5.22302E-18  5.48872E-18
  3.500E-04  9.32893E-12  1.08028E-08  9.99059E-09 -5.62479E-18  5.91093E-18
  3.750E-04  1.07092E-11  1.08028E-08  9.99059E-09 -6.02657E-18  6.33314E-18
  4.000E-04  1.21847E-11  1.08028E-08  9.99059E-09 -6.42834E-18  6.75535E-18
  4.250E-04  1.37554E-11  1.08028E-08  9.99059E-09 -6.83011E-18  7.17756E-18
  4.500E-04  1.54213E-11  1.08028E-08  9.99059E-09 -7.23188E-18  7.59977E-18
  4.750E-04  1.71823E-11  1.08028E-08  9.99059E-09 -7.63365E-18  8.02198E-18
  5.000E-04  1.90386E-11  1.08028E-08  9.99059E-09 -8.03542E-18  8.44419E-18
  5.250E-04  2.09900E-11  1.08028E-08  9.99059E-09 -8.43719E-18  8.86640E-18
  5.500E-04  2.30367E-11  1.08028E-08  9.99059E-09 -8.83896E-18  9.28861E-18
  5.750E-04  2.51785E-11  1.08028E-08  9.99059E-09 -9.24073E-18  9.71082E-18
  6.000E-04  2.74156E-11  1.08028E-08  9.99059E-09 -9.64250E-18  1.01330E-17
  6.250E-04  2.97478E-11  1.08028E-08  9.99059E-09 -1.00443E-17  1.05552E-17
  6.500E-04  3.21752E-11  1.08028E-08  9.99059E-09 -1.04460E-17  1.09774E-17
  6.750E-04  3.46979E-11  1.08028E-08  9.99059E-09 -1.08478E-17  1.13997E-17
  7.000E-04  3.73157E-11  1.08028E-08  9.99059E-09 -1.12496E-17  1.18219E-17
  7.250E-04  4.00286E-11  1.08028E-08  9.99059E-09 -1.16514E-17  1.22441E-17
  7.500E-04  4.28368E-11  1.08028E-08  9.99059E-09 -1.20531E-17  1.26663E-17
  7.750E-04  4.57402E-11  1.08028E-08  9.99059E-09 -1.24549E-17  1.30885E-17
  8.000E-04  4.87388E-11  1.08028E-08  9.99059E-09 -1.28567E-17  1.35107E-17
  8.250E-04  5.18325E-11  1.08028E-08  9.99059E-09 -1.32584E-17  1.39329E-17
  8.500E-04  5.50215E-11  1.08028E-08  9.99059E-09 -1.36602E-17  1.43551E-17
  8.750E-04  5.83057E-11  1.08028E-08  9.99059E-09 -1.40620E-17  1.47773E-17
  9.000E-04  6.16850E-11  1.08028E-08  9.99059E-09 -1.44638E-17  1.51995E-17
  9.250E-04  6.51595E-11  1.08028E-08  9.99059E-09 -1.48655E-17  1.56217E-17
  9.500E-04  6.87293E-11  1.08028E-08  9.99059E-09 -1.52673E-17  1.60440E-17
  9.750E-04  7.23943E-11  1.08028E-08  9.99059E-09 -1.56691E-17  1.64662E-17
  1.000E-03  7.61544E-11  1.08028E-08  9.99059E-09 -1.60708E-17  1.68884E-17
  1.250E-03  1.18991E-10  1.08028E-08  9.99059E-09 -2.00886E-17  2.11105E-17
  1.500E-03  1.71347E-10  1.08028E-08  9.99059E-09 -2.41063E-17  2.53326E-17
  1.750E-03  2.33223E-10  1.08028E-08  9.99059E-09 -2.81240E-17  2.95547E-17
  2.000E-03  3.04617E-10  1.08028E-08  9.99059E-09 -3.21417E-17  3.37768E-17
  2.250E-03  3.85531E-10  1.08028E-08  9.99059E-09 -3.61594E-17  3.79988E-17
  2.500E-03  4.75965E-10  1.08028E-08  9.99059E-09 -4.01771E-17  4.22209E-17
  2.750E-03  5.75917E-10  1.08028E-08  9.99059E-09 -4.41948E-17  4.64430E-17
  3.000E-03  6.85389E-10  1.08028E-08  9.99059E-09 -4.82125E-17  5.06651E-17
  3.250E-03  8.04380E-10  1.08028E-08  9.99059E-09 -5.22302E-17  5.48872E-17
  3.500E-03  9.32891E-10  1.08028E-08  9.99059E-09 -5.62479E-17  5.91093E-17
  3.750E-03  1.07092E-09  1.08028E-08  9.99059E-09 -6.02657E-17  6.33314E-17
  4.000E-03  1.21847E-09  1.08028E-08  9.99059E-09 -6.42834E-17  6.75535E-17
  4.250E-03  1.37554E-09  1.08028E-08  9.99059E-09 -6.83011E-17  7.17756E-17
  4.500E-03  1.54213E-09  1.08028E-08  9.99059E-09 -7.23188E-17  7.59977E-17
  4.750E-03  1.71823E-09  1.08028E-08  9.99059E-09 -7.63365E-17  8.02198E-17
  5.000E-03  1.90386E-09  1.08028E-08  9.99059E-09 -8.03542E-17  8.44419E-17
  5.250E-03  2.09900E-09  1.08028E-08  9.99059E-09 -8.43719E-17  8.86640E-17
  5.500E-03  2.30367E-09  1.08028E-08  9.99059E-09 -8.83896E-17  9.28861E-17
  5.750E-03  2.51785E-09  1.08028E-08  9.99059E-09 -9.24073E-17  9.71082E-17
  6.000E-03  2.74156E-09  1.08028E-08  9.99059E-09 -9.64250E-17  1.01330E-16
  6.250E-03  2.97478E-09  1.08028E-08  9.99059E-09 -1.00443E-16  1.05552E-16
  6.500E-03  3.21752E-09  1.08028E-08  9.99059E-09 -1.04460E-16  1.09774E-16
  6.750E-03  3.46978E-09  1.08028E-08  9.99059E-09 -1.08478E-16  1.13997E-16
  7.000E-03  3.73156E-09  1.08028E-08  9.99059E-09 -1.12496E-16  1.18219E-16
  7.250E-03  4.00286E-09  1.08028E-08  9.99059E-09 -1.16514E-16  1.22441E-16
  7.500E-03  4.28368E-09  1.08028E-08  9.99059E-09 -1.20531E-16  1.26663E-16
  7.750E-03  4.57402E-09  1.08028E-08  9.99059E-09 -1.24549E-16  1.30885E-16
  8.000E-03  4.87388E-09  1.08028E-08  9.99059E-09 -1.28567E-16  1.35107E-16
  8.250E-03  5.18326E-09  1.08028E-08  9.99059E-09 -1.32584E-16  1.39329E-16
  8.500E-03  5.50215E-09  1.08028E-08  9.99059E-09 -1.36602E-16  1.43551E-16
  8.750E-03  5.83057E-09  1.08028E-08  9.99059E-09 -1.40620E-16  1.47773E-16
  9.000E-03  6.16850E-09  1.08028E-08  9.99059E-09 -1.44638E-16  1.51995E-16
  9.250E-03  6.51596E-09  1.08028E-08  9.99059E-09 -1.48655E-16  1.56217E-16
  9.500E-03  6.87293E-09  1.08028E-08  9.99058E-09 -1.52673E-16  1.60440E-16
  9.750E-03  7.23942E-09  1.08028E-08  9.99058E-09 -1.56691E-16  1.64662E-16
  1.000E-02  7.61544E-09  1.08028E-08  9.99058E-09 -1.60708E-16  1.68884E-16
  1.250E-02  1.18991E-08  1.08028E-08  9.99058E-09 -2.00886E-16  2.11105E-16
  1.500E-02  1.71347E-08  1.08028E-08  9.99058E-09 -2.41063E-16  2.53326E-16
  1.750E-02  2.33223E-08  1.08028E-08  9.99058E-09 -2.81240E-16  2.95547E-16
  2.000E-02  3.04617E-08  1.08028E-08  9.99058E-09 -3.21417E-16  3.37767E-16
  2.250E-02  3.85531E-08  1.08028E-08  9.99058E-09 -3.61594E-16  3.79988E-16
  2.500E-02  4.75965E-08  1.08028E-08  9.99058E-09 -4.01772E-16  4.22209E-16
  2.750E-02  5.75917E-08  1.08028E-08  9.99058E-09 -4.41949E-16  4.64430E-16
  3.000E-02  6.85389E-08  1.08028E-08  9.99058E-09 -4.82126E-16  5.06651E-16
  3.250E-02  8.04380E-08  1.08028E-08  9.99058E-09 -5.22304E-16  5.48872E-16
  3.500E-02  9.32891E-08  1.08028E-08  9.99058E-09 -5.62481E-16  5.91093E-16
  3.750E-02  1.07092E-07  1.08027E-08  9.99058E-09 -6.02658E-16  6.33314E-16
  4.000E-02  1.21847E-07  1.08027E-08  9.99058E-09 -6.42836E-16  6.75534E-16
  4.250E-02  1.37554E-07  1.08027E-08  9.99058E-09 -6.83013E-16  7.17755E-16
  4.500E-02  1.54213E-07  1.08027E-08  9.99058E-09 -7.23191E-16  7.59976E-16
  4.750E-02  1.71823E-07  1.08027E-08  9.99058E-09 -7.63369E-16  8.02197E-16
  5.000E-02  1.90386E-07  1.08027E-08  9.99058E-09 -8.03546E-16  8.44418E-16
  5.250E-02  2.09900E-07  1.08027E-08  9.99057E-09 -8.43724E-16  8.86638E-16
  5.500E-02  2.30367E-07  1.08027E-08  9.99057E-09 -8.83902E-16  9.28859E-16
  5.750E-02  2.51785E-07  1.08027E-08  9.99057E-09 -9.24080E-16  9.71080E-16
  6.000E-02  2.74156E-07  1.08027E-08  9.99057E-09 -9.64258E-16  1.01330E-15
  6.250E-02  2.97478E-07  1.08027E-08  9.99057E-09 -1.00444E-15  1.05552E-15
  6.500E-02  3.21752E-07  1.08027E-08  9.99057E-09 -1.04461E-15  1.09774E-15
  6.750E-02  3.46978E-07  1.08027E-08  9.99057E-09 -1.08479E-15  1.13996E-15
  7.000E-02  3.73156E-07  1.08027E-08  9.99057E-09 -1.12497E-15  1.18218E-15
  7.250E-02  4.00286E-07  1.08027E-08  9.99057E-09 -1.16515E-15  1.22440E-15
  7.500E-02  4.28368E-07  1.08027E-08  9.99056E-09 -1.20533E-15  1.26662E-15
  7.750E-02  4.57402E-07  1.08027E-08  9.99056E-09 -1.24551E-15  1.30884E-15
  8.000E-02  4.87388E-07  1.08027E-08  9.99056E-09 -1.28569E-15  1.35106E-15
  8.250E-02  5.18325E-07  1.08027E-08  9.99056E-09 -1.32586E-15  1.39329E-15
  8.500E-02  5.50215E-07  1.08027E-08  9.99056E-09 -1.36604E-15  1.43551E-15
  8.750E-02  5.83057E-07  1.08027E-08  9.99056E-09 -1.40622E-15  1.47773E-15
  9.000E-02  6.16850E-07  1.08027E-08  9.99055E-09 -1.44640E-15  1.51995E-15
  9.250E-02  6.51596E-07  1.08026E-08  9.99055E-09 -1.48658E-15  1.56217E-15
  9.500E-02  6.87293E-07  1.08026E-08  9.99055E-09 -1.52676E-15  1.60439E-15
  9.750E-02  7.23942E-07  1.08026E-08  9.99055E-09 -1.56694E-15  1.64661E-15
  1.000E-01  7.61543E-07  1.08026E-08  9.99055E-09 -1.60712E-15  1.68883E-15
  1.250E-01  1.18991E-06  1.08025E-08  9.99053E-09 -2.00892E-15  2.11103E-15
  1.500E-01  1.71347E-06  1.08024E-08  9.99050E-09 -2.41074E-15  2.53322E-15
  1.750E-01  2.33223E-06  1.08023E-08  9.99047E-09 -2.81258E-15  2.95541E-15
  2.000E-01  3.04617E-06  1.08022E-08  9.99043E-09 -3.21445E-15  3.37759E-15
  2.250E-01  3.85531E-06  1.08020E-08  9.99039E-09 -3.61634E-15  3.79976E-15
  2.500E-01  4.75964E-06  1.08018E-08  9.99035E-09 -4.01826E-15  4.22193E-15
  2.750E-01  5.75916E-06  1.08017E-08  9.99030E-09 -4.42021E-15  4.64408E-15
  3.000E-01  6.85388E-06  1.08014E-08  9.99024E-09 -4.82220E-15  5.06623E-15
  3.250E-01  8.04378E-06  1.08012E-08  9.99018E-09 -5.22422E-15  5.48836E-15
  3.500E-01  9.32888E-06  1.08010E-08  9.99012E-09 -5.62629E-15  5.91048E-15
  3.750E-01  1.07092E-05  1.08007E-08  9.99005E-09 -6.02841E-15  6.33258E-15
  4.000E-01  1.21846E-05  1.08004E-08  9.98998E-09 -6.43057E-15  6.75467E-15
  4.250E-01  1.37553E-05  1.08001E-08  9.98990E-09 -6.83279E-15  7.17675E-15
  4.500E-01  1.54212E-05  1.07998E-08  9.98982E-09 -7.23506E-15  7.59880E-15
  4.750E-01  1.71822E-05  1.07994E-08  9.98973E-09 -7.63739E-15  8.02084E-15
  5.000E-01  1.90385E-05  1.07991E-08  9.98964E-09 -8.03979E-15  8.44286E-15
  5.250E-01  2.09899E-05  1.07987E-08  9.98954E-09 -8.44225E-15  8.86486E-15
  5.500E-01  2.30365E-05  1.07983E-08  9.98944E-09 -8.84477E-15  9.28684E-15
  5.750E-01  2.51783E-05  1.07979E-08  9.98933E-09 -9.24737E-15  9.70880E-15
  6.000E-01  2.74153E-05  1.07975E-08  9.98922E-09 -9.65005E-15  1.01307E-14
  6.250E-01  2.97475E-05  1.07970E-08  9.98910E-09 -1.00528E-14  1.05526E-14
  6.500E-01  3.21749E-05  1.07965E-08  9.98898E-09 -1.04556E-14  1.09745E-14
  6.750E-01  3.46974E-05  1.07961E-08  9.98886E-09 -1.08586E-14  1.13964E-14
  7.000E-01  3.73152E-05  1.07955E-08  9.98873E-09 -1.12616E-14  1.18182E-14
  7.250E-01  4.00281E-05  1.07950E-08  9.98859E-09 -1.16647E-14  1.22400E-14
  7.500E-01  4.28362E-05  1.07945E-08  9.98845E-09 -1.20679E-14  1.26618E-14
  7.750E-01  4.57395E-05  1.07939E-08  9.98831E-09 -1.24712E-14  1.30836E-14
  8.000E-01  4.87380E-05  1.07933E-08  9.98816E-09 -1.28746E-14  1.35053E-14
  8.250E-01  5.18317E-05  1.07927E-08  9.98800E-09 -1.32781E-14  1.39270E-14
  8.500E-01  5.50205E-05  1.07921E-08  9.98784E-09 -1.36817E-14  1.43486E-14
  8.750E-01  5.83045E-05  1.07915E-08  9.98768E-09 -1.40854E-14  1.47702E-14
  9.000E-01  6.16838E-05  1.07908E-08  9.98751E-09 -1.44892E-14  1.51918E-14
  9.250E-01  6.51582E-05  1.07902E-08  9.98734E-09 -1.48932E-14  1.56134E-14
  9.500E-01  6.87277E-05  1.07895E-08  9.98716E-09 -1.52972E-14  1.60349E-14
  9.750E-01  7.23925E-05  1.07888E-08  9.98698E-09 -1.57014E-14  1.64563E-14
  1.000E+00  7.61524E-05  1.07880E-08  9.98679E-09 -1.61058E-14  1.68778E-14
  1.100E+00  9.21439E-05  1.07849E-08  9.98599E-09 -1.77244E-14  1.85631E-14
  1.200E+00  1.09658E-04  1.07816E-08  9.98512E-09 -1.93453E-14  2.02477E-14
  1.300E+00  1.28695E-04  1.07779E-08  9.98417E-09 -2.09688E-14  2.19316E-14
  1.400E+00  1.49255E-04  1.07739E-08  9.98315E-09 -2.25949E-14  2.36147E-14
  1.500E+00  1.71338E-04  1.07697E-08  9.98205E-09 -2.42240E-14  2.52968E-14
  1.600E+00  1.94942E-04  1.07651E-08  9.98087E-09 -2.58562E-14  2.69780E-14
  1.700E+00  2.20070E-04  1.07603E-08  9.97962E-09 -2.74917E-14  2.86582E-14
  1.800E+00  2.46720E-04  1.07551E-08  9.97829E-09 -2.91308E-14  3.03373E-14
  1.900E+00  2.74892E-04  1.07497E-08  9.97689E-09 -3.07737E-14  3.20153E-14
  2.000E+00  3.04586E-04  1.07440E-08  9.97541E-09 -3.24204E-14  3.36920E-14
  2.100E+00  3.35803E-04  1.07380E-08  9.97386E-09 -3.40714E-14  3.53675E-14
  2.200E+00  3.68542E-04  1.07317E-08  9.97223E-09 -3.57266E-14  3.70417E-14
  2.300E+00  4.02802E-04  1.07251E-08  9.97052E-09 -3.73865E-14  3.87144E-14
  2.400E+00  4.38585E-04  1.07182E-08  9.96874E-09 -3.90511E-14  4.03857E-14
  2.500E+00  4.75889E-04  1.07110E-08  9.96689E-09 -4.07207E-14  4.20555E-14
  2.600E+00  5.14715E-04  1.07036E-08  9.96495E-09 -4.23954E-14  4.37237E-14
  2.700E+00  5.55063E-04  1.06958E-08  9.96295E-09 -4.40755E-14  4.53903E-14
  2.800E+00  5.96931E-04  1.06878E-08  9.96086E-09 -4.57612E-14  4.70551E-14
  2.900E+00  6.40321E-04  1.06795E-08  9.95871E-09 -4.74527E-14  4.87182E-14
  3.000E+00  6.85233E-04  1.06709E-08  9.95647E-09 -4.91501E-14  5.03794E-14
  3.100E+00  7.31665E-04  1.06620E-08  9.95417E-09 -5.08536E-14  5.20387E-14
  3.200E+00  7.79618E-04  1.06529E-08  9.95178E-09 -5.25636E-14  5.36961E-14
  3.300E+00  8.29092E-04  1.06434E-08  9.94932E-09 -5.42800E-14  5.53515E-14
  3.400E+00  8.80086E-04  1.06337E-08  9.94679E-09 -5.60033E-14  5.70047E-14
  3.500E+00  9.32601E-04  1.06237E-08  9.94418E-09 -5.77334E-14  5.86558E-14
  3.600E+00  9.86636E-04  1.06134E-08  9.94150E-09 -5.94707E-14  6.03047E-14
  3.700E+00  1.04219E-03  1.06028E-08  9.93874E-09 -6.12153E-14  6.19514E-14
  3.800E+00  1.09927E-03  1.05920E-08  9.93590E-09 -6.29675E-14  6.35956E-14
  3.900E+00  1.15786E-03  1.05809E-08  9.93299E-09 -6.47273E-14  6.52375E-14
  4.000E+00  1.21797E-03  1.05695E-08  9.93001E-09 -6.64951E-14  6.68770E-14
  4.100E+00  1.27961E-03  1.05578E-08  9.92695E-09 -6.82709E-14  6.85139E-14
  4.200E+00  1.34276E-03  1.05459E-08  9.92382E-09 -7.00550E-14  7.01482E-14
  4.300E+00  1.40743E-03  1.05336E-08  9.92061E-09 -7.18475E-14  7.17799E-14
  4.400E+00  1.47362E-03  1.05211E-08  9.91733E-09 -7.36487E-14  7.34088E-14
  4.500E+00  1.54133E-03  1.05084E-08  9.91397E-09 -7.54588E-14  7.50350E-14
  4.600E+00  1.61056E-03  1.04953E-08  9.91054E-09 -7.72778E-14  7.66584E-14
  4.700E+00  1.68131E-03  1.04820E-08  9.90704E-09 -7.91060E-14  7.82789E-14
  4.800E+00  1.75357E-03  1.04684E-08  9.90346E-09 -8.09436E-14  7.98964E-14
  4.900E+00  1.82735E-03  1.04546E-08  9.89980E-09 -8.27907E-14  8.15109E-14
  5.000E+00  1.90265E-03  1.04405E-08  9.89607E-09 -8.46475E-14  8.31223E-14
  5.100E+00  1.97947E-03  1.04261E-08  9.89227E-09 -8.65143E-14  8.47306E-14
  5.200E+00  2.05780E-03  1.04114E-08  9.88840E-09 -8.83911E-14  8.63357E-14
  5.300E+00  2.13765E-03  1.03965E-08  9.88444E-09 -9.02782E-14  8.79375E-14
  5.400E+00  2.21902E-03  1.03813E-08  9.88042E-09 -9.21757E-14  8.95360E-14
  5.500E+00  2.30190E-03  1.03659E-08  9.87632E-09 -9.40837E-14  9.11311E-14
  5.600E+00  2.38630E-03  1.03502E-08  9.87215E-09 -9.60026E-14  9.27228E-14
  5.700E+00  2.47222E-03  1.03343E-08  9.86791E-09 -9.79323E-14  9.43110E-14
  5.800E+00  2.55965E-03  1.03181E-08  9.86359E-09 -9.98732E-14  9.58956E-14
  5.900E+00  2.64859E-03  1.03016E-08  9.85919E-09 -1.01825E-13  9.74766E-14
  6.000E+00  2.73905E-03  1.02849E-08  9.85473E-09 -1.03789E-13  9.90539E-14
  6.100E+00  2.83103E-03  1.02679E-08  9.85019E-09 -1.05764E-13  1.00627E-13
  6.200E+00  2.92452E-03  1.02507E-08  9.84558E-09 -1.07751E-13  1.02197E-13
  6.300E+00  3.01952E-03  1.02332E-08  9.84089E-09 -1.09750E-13  1.03763E-13
  6.400E+00  3.11604E-03  1.02155E-08  9.83613E-09 -1.11760E-13  1.05325E-13
  6.500E+00  3.21407E-03  1.01975E-08  9.83130E-09 -1.13784E-13  1.06883E-13
  6.600E+00  3.31362E-03  1.01793E-08  9.82640E-09 -1.15819E-13  1.08437E-13
  6.700E+00  3.41468E-03  1.01608E-08  9.82142E-09 -1.17867E-13  1.09987E-13
  6.800E+00  3.51725E-03  1.01421E-08  9.81637E-09 -1.19928E-13  1.11532E-13
  6.900E+00  3.62133E-03  1.01231E-08  9.81125E-09 -1.22001E-13  1.13074E-13
  7.000E+00  3.72692E-03  1.01039E-08  9.80605E-09 -1.24087E-13  1.14611E-13
  7.100E+00  3.83403E-03  1.00845E-08  9.80079E-09 -1.26187E-13  1.16144E-13
  7.200E+00  3.94265E-03  1.00648E-08  9.79545E-09 -1.28300E-13  1.17672E-13
  7.300E+00  4.05278E-03  1.00449E-08  9.79003E-09 -1.30426E-13  1.19196E-13
  7.400E+00  4.16442E-03  1.00247E-08  9.78455E-09 -1.32566E-13  1.20716E-13
  7.500E+00  4.27757E-03  1.00043E-08  9.77900E-09 -1.34719E-13  1.22231E-13
  7.600E+00  4.39223E-03  9.98373E-09  9.77337E-09 -1.36887E-13  1.23741E-13
  7.700E+00  4.50840E-03  9.96288E-09  9.76767E-09 -1.39068E-13  1.25246E-13
  7.800E+00  4.62608E-03  9.94181E-09  9.76190E-09 -1.41263E-13  1.26747E-13
  7.900E+00  4.74527E-03  9.92050E-09  9.75605E-09 -1.43473E-13  1.28243E-13
  8.000E+00  4.86597E-03  9.89897E-09  9.75014E-09 -1.45697E-13  1.29734E-13
  8.100E+00  4.98817E-03  9.87721E-09  9.74416E-09 -1.47936E-13  1.31220E-13
  8.200E+00  5.11188E-03  9.85523E-09  9.73810E-09 -1.50189E-13  1.32702E-13
  8.300E+00  5.23711E-03  9.83303E-09  9.73197E-09 -1.52457E-13  1.34178E-13
  8.400E+00  5.36383E-03  9.81061E-09  9.72577E-09 -1.54739E-13  1.35649E-13
  8.500E+00  5.49207E-03  9.78797E-09  9.71950E-09 -1.57037E-13  1.37115E-13
  8.600E+00  5.62181E-03  9.76511E-09  9.71316E-09 -1.59350E-13  1.38575E-13
  8.700E+00  5.75306E-03  9.74204E-09  9.70675E-09 -1.61678E-13  1.40031E-13
  8.800E+00  5.88581E-03  9.71875E-09  9.70027E-09 -1.64022E-13  1.41481E-13
  8.900E+00  6.02007E-03  9.69525E-09  9.69372E-09 -1.66381E-13  1.42926E-13
  9.000E+00  6.15583E-03  9.67154E-09  9.68710E-09 -1.68755E-13  1.44365E-13
  9.100E+00  6.29310E-03  9.64763E-09  9.68040E-09 -1.71145E-13  1.45799E-13
  9.200E+00  6.43187E-03  9.62350E-09  9.67364E-09 -1.73551E-13  1.47227E-13
  9.300E+00  6.57214E-03  9.59918E-09  9.66681E-09 -1.75973E-13  1.48650E-13
  9.400E+00  6.71392E-03  9.57464E-09  9.65991E-09 -1.78411E-13  1.50067E-13
  9.500E+00  6.85720E-03  9.54991E-09  9.65294E-09 -1.80866E-13  1.51478E-13
  9.600E+00  7.00198E-03  9.52498E-09  9.64590E-09 -1.83336E-13  1.52884E-13
  9.700E+00  7.14827E-03  9.49985E-09  9.63878E-09 -1.85823E-13  1.54284E-13
  9.800E+00  7.29605E-03  9.47452E-09  9.63161E-09 -1.88326E-13  1.55677E-13
  9.900E+00  7.44534E-03  9.44899E-09  9.62436E-09 -1.90845E-13  1.57065E-13
  1.000E+01  7.59612E-03  9.42328E-09  9.61704E-09 -1.93382E-13  1.58447E-13
  1.025E+01  7.97965E-03  9.35816E-09  9.59844E-09 -1.99796E-13  1.61875E-13
  1.050E+01  8.37255E-03  9.29187E-09  9.57942E-09 -2.06315E-13  1.65265E-13
  1.075E+01  8.77480E-03  9.22444E-09  9.55997E-09 -2.12943E-13  1.68615E-13
  1.100E+01  9.18641E-03  9.15590E-09  9.54010E-09 -2.19678E-13  1.71925E-13
  1.125E+01  9.60736E-03  9.08628E-09  9.51981E-09 -2.26523E-13  1.75194E-13
  1.150E+01  1.00376E-02  9.01560E-09  9.49909E-09 -2.33479E-13  1.78421E-13
  1.175E+01  1.04773E-02  8.94390E-09  9.47796E-09 -2.40547E-13  1.81605E-13
  1.200E+01  1.09262E-02  8.87121E-09  9.45642E-09 -2.47728E-13  1.84746E-13
  1.225E+01  1.13844E-02  8.79755E-09  9.43447E-09 -2.55022E-13  1.87842E-13
  1.250E+01  1.18520E-02  8.72295E-09  9.41210E-09 -2.62431E-13  1.90894E-13
  1.275E+01  1.23288E-02  8.64744E-09  9.38933E-09 -2.69954E-13  1.93899E-13
  1.300E+01  1.28150E-02  8.57105E-09  9.36616E-09 -2.77594E-13  1.96858E-13
  1.325E+01  1.33104E-02  8.49381E-09  9.34258E-09 -2.85351E-13  1.99769E-13
  1.350E+01  1.38150E-02  8.41576E-09  9.31861E-09 -2.93224E-13  2.02633E-13
  1.375E+01  1.43290E-02  8.33691E-09  9.29424E-09 -3.01215E-13  2.05447E-13
  1.400E+01  1.48521E-02  8.25729E-09  9.26947E-09 -3.09324E-13  2.08212E-13
  1.425E+01  1.53845E-02  8.17695E-09  9.24432E-09 -3.17551E-13  2.10927E-13
  1.450E+01  1.59262E-02  8.09590E-09  9.21878E-09 -3.25897E-13  2.13590E-13
  1.475E+01  1.64770E-02  8.01418E-09  9.19285E-09 -3.34361E-13  2.16202E-13
  1.500E+01  1.70371E-02  7.93181E-09  9.16654E-09 -3.42944E-13  2.18761E-13
