 #
 # Subroutine ELSEPA. Elastic scattering of electrons and positrons
 #                    by neutral atoms and positive ions
 #
 # Projectile: electron
 # Kinetic energy = 5.60000E+01 eV = 2.05796E+00 a.u.
 #
 #  ***  WARNING: Energy is too low.
 #                The reliability of the results is questionable.
 #
 # Element:  O,  Z =   8,  atomic weight = 1.59994E+01 g/mol
 #
 # Nuclear model: point charge
 #
 # Number of electrons =  8
 #
 # Electron density: Read from file z_008.den   
 #                   Number of data points =  681
 #                   Volume integral = 8.00000E+00
 #
 # Furness-McCarthy exchange potential
 #
 # Total elastic cross section = 3.66658E-16 cm**2 = 1.30936E+01 a0**2
 # 1st transport cross section = 2.80920E-16 cm**2 = 1.00318E+01 a0**2
 # 2nd transport cross section = 1.96464E-16 cm**2 = 7.01586E+00 a0**2
 #
 #
 # Differential cross section:                       MU=(1-COS(THETA))/2
 #
 #  THETA        MU          DCS          DCS        Sherman      error
 #  (deg)                 (cm**2/sr)   (a0**2/sr)    function
 #----------------------------------------------------------------------
  0.000E+00  0.00000E+00  1.83191E-16  6.54188E+00  0.00000E+00  1.0E-07
  1.000E-04  7.61557E-13  1.83191E-16  6.54188E+00  2.90972E-11  1.0E-07
  1.250E-04  1.18994E-12  1.83191E-16  6.54188E+00  3.63715E-11  1.0E-07
  1.500E-04  1.71346E-12  1.83191E-16  6.54188E+00  4.36458E-11  1.0E-07
  1.750E-04  2.33225E-12  1.83191E-16  6.54188E+00  5.09201E-11  1.0E-07
  2.000E-04  3.04617E-12  1.83191E-16  6.54188E+00  5.81945E-11  1.0E-07
  2.250E-04  3.85530E-12  1.83191E-16  6.54188E+00  6.54688E-11  1.0E-07
  2.500E-04  4.75964E-12  1.83191E-16  6.54188E+00  7.27431E-11  1.0E-07
  2.750E-04  5.75917E-12  1.83191E-16  6.54188E+00  8.00174E-11  1.0E-07
  3.000E-04  6.85391E-12  1.83191E-16  6.54188E+00  8.72917E-11  1.0E-07
  3.250E-04  8.04379E-12  1.83191E-16  6.54188E+00  9.45660E-11  1.0E-07
  3.500E-04  9.32893E-12  1.83191E-16  6.54188E+00  1.01840E-10  1.0E-07
  3.750E-04  1.07092E-11  1.83191E-16  6.54188E+00  1.09115E-10  1.0E-07
  4.000E-04  1.21847E-11  1.83191E-16  6.54188E+00  1.16389E-10  1.0E-07
  4.250E-04  1.37554E-11  1.83191E-16  6.54188E+00  1.23663E-10  1.0E-07
  4.500E-04  1.54213E-11  1.83191E-16  6.54188E+00  1.30938E-10  1.0E-07
  4.750E-04  1.71823E-11  1.83191E-16  6.54188E+00  1.38212E-10  1.0E-07
  5.000E-04  1.90386E-11  1.83191E-16  6.54188E+00  1.45486E-10  1.0E-07
  5.250E-04  2.09900E-11  1.83191E-16  6.54188E+00  1.52760E-10  1.0E-07
  5.500E-04  2.30367E-11  1.83191E-16  6.54188E+00  1.60035E-10  1.0E-07
  5.750E-04  2.51785E-11  1.83191E-16  6.54188E+00  1.67309E-10  1.0E-07
  6.000E-04  2.74156E-11  1.83191E-16  6.54188E+00  1.74583E-10  1.0E-07
  6.250E-04  2.97478E-11  1.83191E-16  6.54188E+00  1.81858E-10  1.0E-07
  6.500E-04  3.21752E-11  1.83191E-16  6.54188E+00  1.89132E-10  1.0E-07
  6.750E-04  3.46979E-11  1.83191E-16  6.54188E+00  1.96406E-10  1.0E-07
  7.000E-04  3.73157E-11  1.83191E-16  6.54188E+00  2.03681E-10  1.0E-07
  7.250E-04  4.00286E-11  1.83191E-16  6.54188E+00  2.10955E-10  1.0E-07
  7.500E-04  4.28368E-11  1.83191E-16  6.54188E+00  2.18229E-10  1.0E-07
  7.750E-04  4.57402E-11  1.83191E-16  6.54188E+00  2.25504E-10  1.0E-07
  8.000E-04  4.87388E-11  1.83191E-16  6.54188E+00  2.32778E-10  1.0E-07
  8.250E-04  5.18325E-11  1.83191E-16  6.54188E+00  2.40052E-10  1.0E-07
  8.500E-04  5.50215E-11  1.83191E-16  6.54188E+00  2.47326E-10  1.0E-07
  8.750E-04  5.83057E-11  1.83191E-16  6.54188E+00  2.54601E-10  1.0E-07
  9.000E-04  6.16850E-11  1.83191E-16  6.54188E+00  2.61875E-10  1.0E-07
  9.250E-04  6.51595E-11  1.83191E-16  6.54188E+00  2.69149E-10  1.0E-07
  9.500E-04  6.87293E-11  1.83191E-16  6.54188E+00  2.76424E-10  1.0E-07
  9.750E-04  7.23943E-11  1.83191E-16  6.54188E+00  2.83698E-10  1.0E-07
  1.000E-03  7.61544E-11  1.83191E-16  6.54188E+00  2.90972E-10  1.0E-07
  1.250E-03  1.18991E-10  1.83191E-16  6.54188E+00  3.63715E-10  1.0E-07
  1.500E-03  1.71347E-10  1.83191E-16  6.54188E+00  4.36458E-10  1.0E-07
  1.750E-03  2.33223E-10  1.83191E-16  6.54188E+00  5.09202E-10  1.0E-07
  2.000E-03  3.04617E-10  1.83191E-16  6.54188E+00  5.81945E-10  1.0E-07
  2.250E-03  3.85531E-10  1.83191E-16  6.54188E+00  6.54688E-10  1.0E-07
  2.500E-03  4.75965E-10  1.83191E-16  6.54188E+00  7.27431E-10  1.0E-07
  2.750E-03  5.75917E-10  1.83191E-16  6.54188E+00  8.00174E-10  1.0E-07
  3.000E-03  6.85389E-10  1.83191E-16  6.54188E+00  8.72917E-10  1.0E-07
  3.250E-03  8.04380E-10  1.83191E-16  6.54188E+00  9.45660E-10  1.0E-07
  3.500E-03  9.32891E-10  1.83191E-16  6.54188E+00  1.01840E-09  1.0E-07
  3.750E-03  1.07092E-09  1.83191E-16  6.54188E+00  1.09115E-09  1.0E-07
  4.000E-03  1.21847E-09  1.83191E-16  6.54188E+00  1.16389E-09  1.0E-07
  4.250E-03  1.37554E-09  1.83191E-16  6.54188E+00  1.23663E-09  1.0E-07
  4.500E-03  1.54213E-09  1.83191E-16  6.54188E+00  1.30938E-09  1.0E-07
  4.750E-03  1.71823E-09  1.83191E-16  6.54188E+00  1.38212E-09  1.0E-07
  5.000E-03  1.90386E-09  1.83191E-16  6.54188E+00  1.45486E-09  1.0E-07
  5.250E-03  2.09900E-09  1.83191E-16  6.54188E+00  1.52761E-09  1.0E-07
  5.500E-03  2.30367E-09  1.83191E-16  6.54188E+00  1.60035E-09  1.0E-07
  5.750E-03  2.51785E-09  1.83191E-16  6.54188E+00  1.67309E-09  1.0E-07
  6.000E-03  2.74156E-09  1.83191E-16  6.54188E+00  1.74583E-09  1.0E-07
  6.250E-03  2.97478E-09  1.83191E-16  6.54188E+00  1.81858E-09  1.0E-07
  6.500E-03  3.21752E-09  1.83191E-16  6.54188E+00  1.89132E-09  1.0E-07
  6.750E-03  3.46978E-09  1.83191E-16  6.54188E+00  1.96406E-09  1.0E-07
  7.000E-03  3.73156E-09  1.83191E-16  6.54188E+00  2.03681E-09  1.0E-07
  7.250E-03  4.00286E-09  1.83191E-16  6.54188E+00  2.10955E-09  1.0E-07
  7.500E-03  4.28368E-09  1.83191E-16  6.54188E+00  2.18229E-09  1.0E-07
  7.750E-03  4.57402E-09  1.83191E-16  6.54188E+00  2.25504E-09  1.0E-07
  8.000E-03  4.87388E-09  1.83191E-16  6.54188E+00  2.32778E-09  1.0E-07
  8.250E-03  5.18326E-09  1.83191E-16  6.54188E+00  2.40052E-09  1.0E-07
  8.500E-03  5.50215E-09  1.83191E-16  6.54188E+00  2.47327E-09  1.0E-07
  8.750E-03  5.83057E-09  1.83191E-16  6.54188E+00  2.54601E-09  1.0E-07
  9.000E-03  6.16850E-09  1.83191E-16  6.54188E+00  2.61875E-09  1.0E-07
  9.250E-03  6.51596E-09  1.83191E-16  6.54188E+00  2.69150E-09  1.0E-07
  9.500E-03  6.87293E-09  1.83191E-16  6.54188E+00  2.76424E-09  1.0E-07
  9.750E-03  7.23942E-09  1.83191E-16  6.54188E+00  2.83698E-09  1.0E-07
  1.000E-02  7.61544E-09  1.83191E-16  6.54188E+00  2.90973E-09  1.0E-07
  1.250E-02  1.18991E-08  1.83191E-16  6.54188E+00  3.63716E-09  1.0E-07
  1.500E-02  1.71347E-08  1.83191E-16  6.54188E+00  4.36460E-09  1.0E-07
  1.750E-02  2.33223E-08  1.83191E-16  6.54188E+00  5.09204E-09  1.0E-07
  2.000E-02  3.04617E-08  1.83191E-16  6.54188E+00  5.81948E-09  1.0E-07
  2.250E-02  3.85531E-08  1.83191E-16  6.54188E+00  6.54692E-09  1.0E-07
  2.500E-02  4.75965E-08  1.83191E-16  6.54187E+00  7.27437E-09  1.0E-07
  2.750E-02  5.75917E-08  1.83191E-16  6.54187E+00  8.00182E-09  1.0E-07
  3.000E-02  6.85389E-08  1.83191E-16  6.54187E+00  8.72927E-09  1.0E-07
  3.250E-02  8.04380E-08  1.83191E-16  6.54187E+00  9.45673E-09  1.0E-07
  3.500E-02  9.32891E-08  1.83191E-16  6.54187E+00  1.01842E-08  1.0E-07
  3.750E-02  1.07092E-07  1.83191E-16  6.54187E+00  1.09117E-08  1.0E-07
  4.000E-02  1.21847E-07  1.83191E-16  6.54187E+00  1.16391E-08  1.0E-07
  4.250E-02  1.37554E-07  1.83191E-16  6.54187E+00  1.23666E-08  1.0E-07
  4.500E-02  1.54213E-07  1.83191E-16  6.54187E+00  1.30941E-08  1.0E-07
  4.750E-02  1.71823E-07  1.83191E-16  6.54186E+00  1.38216E-08  1.0E-07
  5.000E-02  1.90386E-07  1.83191E-16  6.54186E+00  1.45491E-08  1.0E-07
  5.250E-02  2.09900E-07  1.83191E-16  6.54186E+00  1.52766E-08  1.0E-07
  5.500E-02  2.30367E-07  1.83191E-16  6.54186E+00  1.60041E-08  1.0E-07
  5.750E-02  2.51785E-07  1.83191E-16  6.54186E+00  1.67316E-08  1.0E-07
  6.000E-02  2.74156E-07  1.83191E-16  6.54186E+00  1.74592E-08  1.0E-07
  6.250E-02  2.97478E-07  1.83191E-16  6.54185E+00  1.81867E-08  1.0E-07
  6.500E-02  3.21752E-07  1.83191E-16  6.54185E+00  1.89142E-08  1.0E-07
  6.750E-02  3.46978E-07  1.83190E-16  6.54185E+00  1.96418E-08  1.0E-07
  7.000E-02  3.73156E-07  1.83190E-16  6.54185E+00  2.03694E-08  1.0E-07
  7.250E-02  4.00286E-07  1.83190E-16  6.54185E+00  2.10969E-08  1.0E-07
  7.500E-02  4.28368E-07  1.83190E-16  6.54184E+00  2.18245E-08  1.0E-07
  7.750E-02  4.57402E-07  1.83190E-16  6.54184E+00  2.25521E-08  1.0E-07
  8.000E-02  4.87388E-07  1.83190E-16  6.54184E+00  2.32797E-08  1.0E-07
  8.250E-02  5.18325E-07  1.83190E-16  6.54184E+00  2.40073E-08  1.0E-07
  8.500E-02  5.50215E-07  1.83190E-16  6.54183E+00  2.47350E-08  1.0E-07
  8.750E-02  5.83057E-07  1.83190E-16  6.54183E+00  2.54626E-08  1.0E-07
  9.000E-02  6.16850E-07  1.83190E-16  6.54183E+00  2.61903E-08  1.0E-07
  9.250E-02  6.51596E-07  1.83190E-16  6.54183E+00  2.69179E-08  1.0E-07
  9.500E-02  6.87293E-07  1.83190E-16  6.54182E+00  2.76456E-08  1.0E-07
  9.750E-02  7.23942E-07  1.83190E-16  6.54182E+00  2.83733E-08  1.0E-07
  1.000E-01  7.61543E-07  1.83190E-16  6.54182E+00  2.91010E-08  1.0E-07
  1.250E-01  1.18991E-06  1.83189E-16  6.54178E+00  3.63789E-08  1.0E-07
  1.500E-01  1.71347E-06  1.83187E-16  6.54174E+00  4.36586E-08  1.0E-07
  1.750E-01  2.33223E-06  1.83186E-16  6.54169E+00  5.09404E-08  1.0E-07
  2.000E-01  3.04617E-06  1.83184E-16  6.54164E+00  5.82247E-08  1.0E-07
  2.250E-01  3.85531E-06  1.83183E-16  6.54157E+00  6.55118E-08  1.0E-07
  2.500E-01  4.75964E-06  1.83181E-16  6.54150E+00  7.28021E-08  1.0E-07
  2.750E-01  5.75916E-06  1.83178E-16  6.54142E+00  8.00959E-08  1.0E-07
  3.000E-01  6.85388E-06  1.83176E-16  6.54133E+00  8.73937E-08  1.0E-07
  3.250E-01  8.04378E-06  1.83173E-16  6.54124E+00  9.46956E-08  1.0E-07
  3.500E-01  9.32888E-06  1.83170E-16  6.54113E+00  1.02002E-07  1.0E-07
  3.750E-01  1.07092E-05  1.83167E-16  6.54102E+00  1.09314E-07  1.0E-07
  4.000E-01  1.21846E-05  1.83164E-16  6.54091E+00  1.16631E-07  1.0E-07
  4.250E-01  1.37553E-05  1.83161E-16  6.54078E+00  1.23953E-07  1.0E-07
  4.500E-01  1.54212E-05  1.83157E-16  6.54065E+00  1.31282E-07  1.0E-07
  4.750E-01  1.71822E-05  1.83153E-16  6.54051E+00  1.38617E-07  1.0E-07
  5.000E-01  1.90385E-05  1.83149E-16  6.54036E+00  1.45958E-07  1.0E-07
  5.250E-01  2.09899E-05  1.83144E-16  6.54021E+00  1.53307E-07  1.0E-07
  5.500E-01  2.30365E-05  1.83140E-16  6.54004E+00  1.60663E-07  1.0E-07
  5.750E-01  2.51783E-05  1.83135E-16  6.53987E+00  1.68027E-07  1.0E-07
  6.000E-01  2.74153E-05  1.83130E-16  6.53969E+00  1.75399E-07  1.0E-07
  6.250E-01  2.97475E-05  1.83125E-16  6.53951E+00  1.82780E-07  1.0E-07
  6.500E-01  3.21749E-05  1.83119E-16  6.53931E+00  1.90169E-07  1.0E-07
  6.750E-01  3.46974E-05  1.83114E-16  6.53911E+00  1.97568E-07  1.0E-07
  7.000E-01  3.73152E-05  1.83108E-16  6.53890E+00  2.04976E-07  1.0E-07
  7.250E-01  4.00281E-05  1.83102E-16  6.53869E+00  2.12394E-07  1.0E-07
  7.500E-01  4.28362E-05  1.83096E-16  6.53847E+00  2.19823E-07  1.0E-07
  7.750E-01  4.57395E-05  1.83089E-16  6.53823E+00  2.27262E-07  1.0E-07
  8.000E-01  4.87380E-05  1.83083E-16  6.53799E+00  2.34712E-07  1.0E-07
  8.250E-01  5.18317E-05  1.83076E-16  6.53775E+00  2.42173E-07  1.0E-07
  8.500E-01  5.50205E-05  1.83068E-16  6.53749E+00  2.49647E-07  1.0E-07
  8.750E-01  5.83045E-05  1.83061E-16  6.53723E+00  2.57132E-07  1.0E-07
  9.000E-01  6.16838E-05  1.83054E-16  6.53696E+00  2.64629E-07  1.0E-07
  9.250E-01  6.51582E-05  1.83046E-16  6.53669E+00  2.72140E-07  1.0E-07
  9.500E-01  6.87277E-05  1.83038E-16  6.53640E+00  2.79663E-07  1.0E-07
  9.750E-01  7.23925E-05  1.83030E-16  6.53611E+00  2.87200E-07  1.0E-07
  1.000E+00  7.61524E-05  1.83021E-16  6.53581E+00  2.94751E-07  1.0E-07
  1.100E+00  9.21439E-05  1.82986E-16  6.53454E+00  3.25099E-07  1.0E-07
  1.200E+00  1.09658E-04  1.82947E-16  6.53314E+00  3.55697E-07  1.0E-07
  1.300E+00  1.28695E-04  1.82904E-16  6.53163E+00  3.86568E-07  1.0E-07
  1.400E+00  1.49255E-04  1.82858E-16  6.52999E+00  4.17734E-07  1.0E-07
  1.500E+00  1.71338E-04  1.82809E-16  6.52824E+00  4.49218E-07  1.0E-07
  1.600E+00  1.94942E-04  1.82757E-16  6.52636E+00  4.81043E-07  1.0E-07
  1.700E+00  2.20070E-04  1.82701E-16  6.52437E+00  5.13232E-07  1.0E-07
  1.800E+00  2.46720E-04  1.82642E-16  6.52225E+00  5.45808E-07  1.0E-07
  1.900E+00  2.74892E-04  1.82579E-16  6.52001E+00  5.78793E-07  1.0E-07
  2.000E+00  3.04586E-04  1.82513E-16  6.51766E+00  6.12212E-07  1.0E-07
  2.100E+00  3.35803E-04  1.82444E-16  6.51518E+00  6.46086E-07  1.0E-07
  2.200E+00  3.68542E-04  1.82371E-16  6.51258E+00  6.80440E-07  1.0E-07
  2.300E+00  4.02802E-04  1.82295E-16  6.50987E+00  7.15295E-07  1.0E-07
  2.400E+00  4.38585E-04  1.82216E-16  6.50704E+00  7.50676E-07  1.0E-07
  2.500E+00  4.75889E-04  1.82133E-16  6.50408E+00  7.86605E-07  1.0E-07
  2.600E+00  5.14715E-04  1.82047E-16  6.50101E+00  8.23106E-07  1.0E-07
  2.700E+00  5.55063E-04  1.81958E-16  6.49782E+00  8.60202E-07  1.0E-07
  2.800E+00  5.96931E-04  1.81865E-16  6.49451E+00  8.97916E-07  1.0E-07
  2.900E+00  6.40321E-04  1.81769E-16  6.49109E+00  9.36273E-07  1.0E-07
  3.000E+00  6.85233E-04  1.81670E-16  6.48754E+00  9.75294E-07  1.0E-07
  3.100E+00  7.31665E-04  1.81567E-16  6.48388E+00  1.01500E-06  1.0E-07
  3.200E+00  7.79618E-04  1.81461E-16  6.48010E+00  1.05543E-06  1.0E-07
  3.300E+00  8.29092E-04  1.81352E-16  6.47621E+00  1.09659E-06  1.0E-07
  3.400E+00  8.80086E-04  1.81240E-16  6.47220E+00  1.13850E-06  1.0E-07
  3.500E+00  9.32601E-04  1.81124E-16  6.46807E+00  1.18121E-06  1.0E-07
  3.600E+00  9.86636E-04  1.81005E-16  6.46382E+00  1.22472E-06  1.0E-07
  3.700E+00  1.04219E-03  1.80883E-16  6.45946E+00  1.26906E-06  1.0E-07
  3.800E+00  1.09927E-03  1.80758E-16  6.45499E+00  1.31425E-06  1.0E-07
  3.900E+00  1.15786E-03  1.80630E-16  6.45040E+00  1.36033E-06  1.0E-07
  4.000E+00  1.21797E-03  1.80498E-16  6.44569E+00  1.40731E-06  1.0E-07
  4.100E+00  1.27961E-03  1.80363E-16  6.44087E+00  1.45521E-06  1.0E-07
  4.200E+00  1.34276E-03  1.80225E-16  6.43594E+00  1.50407E-06  1.0E-07
  4.300E+00  1.40743E-03  1.80083E-16  6.43089E+00  1.55391E-06  1.0E-07
  4.400E+00  1.47362E-03  1.79939E-16  6.42573E+00  1.60474E-06  1.0E-07
  4.500E+00  1.54133E-03  1.79791E-16  6.42045E+00  1.65660E-06  1.0E-07
  4.600E+00  1.61056E-03  1.79640E-16  6.41507E+00  1.70951E-06  1.0E-07
  4.700E+00  1.68131E-03  1.79486E-16  6.40957E+00  1.76350E-06  1.0E-07
  4.800E+00  1.75357E-03  1.79329E-16  6.40396E+00  1.81859E-06  1.0E-07
  4.900E+00  1.82735E-03  1.79169E-16  6.39824E+00  1.87480E-06  1.0E-07
  5.000E+00  1.90265E-03  1.79005E-16  6.39240E+00  1.93216E-06  1.0E-07
  5.100E+00  1.97947E-03  1.78839E-16  6.38646E+00  1.99069E-06  1.0E-07
  5.200E+00  2.05780E-03  1.78669E-16  6.38040E+00  2.05043E-06  1.0E-07
  5.300E+00  2.13765E-03  1.78497E-16  6.37424E+00  2.11138E-06  1.0E-07
  5.400E+00  2.21902E-03  1.78321E-16  6.36797E+00  2.17359E-06  1.0E-07
  5.500E+00  2.30190E-03  1.78142E-16  6.36158E+00  2.23708E-06  1.0E-07
  5.600E+00  2.38630E-03  1.77961E-16  6.35509E+00  2.30187E-06  1.0E-07
  5.700E+00  2.47222E-03  1.77776E-16  6.34849E+00  2.36798E-06  1.0E-07
  5.800E+00  2.55965E-03  1.77588E-16  6.34179E+00  2.43545E-06  1.0E-07
  5.900E+00  2.64859E-03  1.77397E-16  6.33497E+00  2.50430E-06  1.0E-07
  6.000E+00  2.73905E-03  1.77204E-16  6.32805E+00  2.57455E-06  1.0E-07
  6.100E+00  2.83103E-03  1.77007E-16  6.32103E+00  2.64624E-06  1.0E-07
  6.200E+00  2.92452E-03  1.76807E-16  6.31390E+00  2.71938E-06  1.0E-07
  6.300E+00  3.01952E-03  1.76604E-16  6.30666E+00  2.79401E-06  1.0E-07
  6.400E+00  3.11604E-03  1.76399E-16  6.29932E+00  2.87014E-06  1.0E-07
  6.500E+00  3.21407E-03  1.76190E-16  6.29187E+00  2.94782E-06  1.0E-07
  6.600E+00  3.31362E-03  1.75979E-16  6.28432E+00  3.02706E-06  1.0E-07
  6.700E+00  3.41468E-03  1.75765E-16  6.27667E+00  3.10789E-06  1.0E-07
  6.800E+00  3.51725E-03  1.75548E-16  6.26892E+00  3.19034E-06  1.0E-07
  6.900E+00  3.62133E-03  1.75328E-16  6.26106E+00  3.27443E-06  1.0E-07
  7.000E+00  3.72692E-03  1.75105E-16  6.25310E+00  3.36020E-06  1.0E-07
  7.100E+00  3.83403E-03  1.74879E-16  6.24504E+00  3.44767E-06  1.0E-07
  7.200E+00  3.94265E-03  1.74650E-16  6.23688E+00  3.53686E-06  1.0E-07
  7.300E+00  4.05278E-03  1.74419E-16  6.22862E+00  3.62781E-06  1.0E-07
  7.400E+00  4.16442E-03  1.74185E-16  6.22026E+00  3.72055E-06  1.0E-07
  7.500E+00  4.27757E-03  1.73948E-16  6.21181E+00  3.81509E-06  1.0E-07
  7.600E+00  4.39223E-03  1.73709E-16  6.20325E+00  3.91148E-06  1.0E-07
  7.700E+00  4.50840E-03  1.73466E-16  6.19460E+00  4.00974E-06  1.0E-07
  7.800E+00  4.62608E-03  1.73221E-16  6.18585E+00  4.10989E-06  1.0E-07
  7.900E+00  4.74527E-03  1.72974E-16  6.17700E+00  4.21196E-06  1.0E-07
  8.000E+00  4.86597E-03  1.72723E-16  6.16806E+00  4.31600E-06  1.0E-07
  8.100E+00  4.98817E-03  1.72470E-16  6.15903E+00  4.42201E-06  1.0E-07
  8.200E+00  5.11188E-03  1.72215E-16  6.14989E+00  4.53004E-06  1.0E-07
  8.300E+00  5.23711E-03  1.71956E-16  6.14067E+00  4.64010E-06  1.0E-07
  8.400E+00  5.36383E-03  1.71695E-16  6.13135E+00  4.75224E-06  1.0E-07
  8.500E+00  5.49207E-03  1.71432E-16  6.12194E+00  4.86648E-06  1.0E-07
  8.600E+00  5.62181E-03  1.71166E-16  6.11244E+00  4.98285E-06  1.0E-07
  8.700E+00  5.75306E-03  1.70897E-16  6.10284E+00  5.10138E-06  1.0E-07
  8.800E+00  5.88581E-03  1.70626E-16  6.09316E+00  5.22210E-06  1.0E-07
  8.900E+00  6.02007E-03  1.70352E-16  6.08338E+00  5.34505E-06  1.0E-07
  9.000E+00  6.15583E-03  1.70076E-16  6.07352E+00  5.47024E-06  1.0E-07
  9.100E+00  6.29310E-03  1.69797E-16  6.06357E+00  5.59771E-06  1.0E-07
  9.200E+00  6.43187E-03  1.69516E-16  6.05352E+00  5.72750E-06  1.0E-07
  9.300E+00  6.57214E-03  1.69232E-16  6.04340E+00  5.85963E-06  1.0E-07
  9.400E+00  6.71392E-03  1.68946E-16  6.03318E+00  5.99414E-06  1.0E-07
  9.500E+00  6.85720E-03  1.68658E-16  6.02288E+00  6.13105E-06  1.0E-07
  9.600E+00  7.00198E-03  1.68367E-16  6.01249E+00  6.27040E-06  1.0E-07
  9.700E+00  7.14827E-03  1.68074E-16  6.00202E+00  6.41222E-06  1.0E-07
  9.800E+00  7.29605E-03  1.67778E-16  5.99147E+00  6.55654E-06  1.0E-07
  9.900E+00  7.44534E-03  1.67480E-16  5.98083E+00  6.70339E-06  1.0E-07
  1.000E+01  7.59612E-03  1.67180E-16  5.97010E+00  6.85281E-06  1.0E-07
  1.025E+01  7.97965E-03  1.66419E-16  5.94294E+00  7.23780E-06  1.0E-07
  1.050E+01  8.37255E-03  1.65645E-16  5.91528E+00  7.63954E-06  1.0E-07
  1.075E+01  8.77480E-03  1.64856E-16  5.88713E+00  8.05856E-06  1.0E-07
  1.100E+01  9.18641E-03  1.64055E-16  5.85849E+00  8.49538E-06  1.0E-07
  1.125E+01  9.60736E-03  1.63240E-16  5.82939E+00  8.95055E-06  1.0E-07
  1.150E+01  1.00376E-02  1.62412E-16  5.79984E+00  9.42460E-06  1.0E-07
  1.175E+01  1.04773E-02  1.61572E-16  5.76984E+00  9.91810E-06  1.0E-07
  1.200E+01  1.09262E-02  1.60720E-16  5.73940E+00  1.04316E-05  1.0E-07
  1.225E+01  1.13844E-02  1.59856E-16  5.70855E+00  1.09657E-05  1.0E-07
  1.250E+01  1.18520E-02  1.58980E-16  5.67728E+00  1.15209E-05  1.0E-07
  1.275E+01  1.23288E-02  1.58093E-16  5.64562E+00  1.20979E-05  1.0E-07
  1.300E+01  1.28150E-02  1.57196E-16  5.61357E+00  1.26972E-05  1.0E-07
  1.325E+01  1.33104E-02  1.56288E-16  5.58114E+00  1.33195E-05  1.0E-07
  1.350E+01  1.38150E-02  1.55370E-16  5.54836E+00  1.39654E-05  1.0E-07
  1.375E+01  1.43290E-02  1.54442E-16  5.51522E+00  1.46355E-05  1.0E-07
  1.400E+01  1.48521E-02  1.53505E-16  5.48175E+00  1.53304E-05  1.0E-07
  1.425E+01  1.53845E-02  1.52558E-16  5.44795E+00  1.60509E-05  1.0E-07
  1.450E+01  1.59262E-02  1.51603E-16  5.41384E+00  1.67975E-05  1.0E-07
  1.475E+01  1.64770E-02  1.50639E-16  5.37942E+00  1.75709E-05  1.0E-07
  1.500E+01  1.70371E-02  1.49667E-16  5.34472E+00  1.83718E-05  1.0E-07
  1.525E+01  1.76063E-02  1.48688E-16  5.30974E+00  1.92010E-05  1.0E-07
  1.550E+01  1.81848E-02  1.47701E-16  5.27449E+00  2.00590E-05  1.0E-07
